3.991926e+002,2.924964e+001
4.011211e+002,2.919389e+001
4.030496e+002,2.921206e+001
4.049780e+002,2.926983e+001
4.069065e+002,2.932138e+001
4.088350e+002,2.932509e+001
4.107634e+002,2.925761e+001
4.126919e+002,2.911466e+001
4.146204e+002,2.890595e+001
4.165488e+002,2.864869e+001
4.184773e+002,2.836036e+001
4.204058e+002,2.805542e+001
4.223342e+002,2.774555e+001
4.242627e+002,2.744317e+001
4.261912e+002,2.716390e+001
4.281196e+002,2.692361e+001
4.300481e+002,2.673706e+001
4.319766e+002,2.661226e+001
4.339050e+002,2.654794e+001
4.358335e+002,2.653537e+001
4.377620e+002,2.656161e+001
4.396904e+002,2.661518e+001
4.416189e+002,2.668904e+001
4.435474e+002,2.678118e+001
4.454758e+002,2.689032e+001
4.474043e+002,2.701012e+001
4.493328e+002,2.712661e+001
4.512612e+002,2.721731e+001
4.531897e+002,2.725608e+001
4.551182e+002,2.722231e+001
4.570466e+002,2.710449e+001
4.589751e+002,2.690376e+001
4.609036e+002,2.663023e+001
4.628320e+002,2.629788e+001
4.647605e+002,2.591955e+001
4.666890e+002,2.550590e+001
4.686174e+002,2.506886e+001
4.705459e+002,2.462391e+001
4.724744e+002,2.419254e+001
4.744028e+002,2.380144e+001
4.763313e+002,2.347537e+001
4.782598e+002,2.323502e+001
4.801882e+002,2.309378e+001
4.821167e+002,2.305724e+001
4.840452e+002,2.312763e+001
4.859736e+002,2.330554e+001
4.879021e+002,2.359056e+001
4.898306e+002,2.397993e+001
4.917590e+002,2.446557e+001
4.936875e+002,2.503265e+001
4.956160e+002,2.565880e+001
4.975444e+002,2.631975e+001
4.994729e+002,2.699268e+001
5.014014e+002,2.766065e+001
5.033298e+002,2.831621e+001
5.052583e+002,2.895949e+001
5.071868e+002,2.959577e+001
5.091152e+002,3.023135e+001
5.110437e+002,3.087183e+001
5.129722e+002,3.152109e+001
5.149006e+002,3.218193e+001
5.168291e+002,3.285688e+001
5.187576e+002,3.354727e+001
5.206860e+002,3.425139e+001
5.226145e+002,3.496191e+001
5.245430e+002,3.566573e+001
5.264714e+002,3.634459e+001
5.283999e+002,3.697839e+001
5.303284e+002,3.755078e+001
5.322568e+002,3.804979e+001
5.341853e+002,3.846911e+001
5.361138e+002,3.880696e+001
5.380422e+002,3.906298e+001
5.399707e+002,3.923753e+001
5.418992e+002,3.933219e+001
5.438276e+002,3.935268e+001
5.457561e+002,3.931159e+001
5.476846e+002,3.923043e+001
5.496130e+002,3.914018e+001
5.515415e+002,3.907400e+001
5.534700e+002,3.906370e+001
5.553984e+002,3.913320e+001
5.573269e+002,3.929294e+001
5.592554e+002,3.954105e+001
5.611838e+002,3.986488e+001
5.631123e+002,4.024644e+001
5.650408e+002,4.066418e+001
5.669692e+002,4.109756e+001
5.688977e+002,4.152902e+001
5.708262e+002,4.194356e+001
5.727546e+002,4.233173e+001
5.746831e+002,4.269034e+001
5.766116e+002,4.302370e+001
5.785400e+002,4.334278e+001
5.804685e+002,4.366374e+001
5.823970e+002,4.400417e+001
5.843254e+002,4.437693e+001
5.862539e+002,4.478746e+001
5.881824e+002,4.523016e+001
5.901108e+002,4.568988e+001
5.920393e+002,4.614290e+001
5.939678e+002,4.656330e+001
5.958962e+002,4.692864e+001
5.978247e+002,4.722276e+001
5.997532e+002,4.744105e+001
6.016816e+002,4.759084e+001
6.036101e+002,4.769109e+001
6.055386e+002,4.776692e+001
6.074670e+002,4.784684e+001
6.093955e+002,4.795615e+001
6.113240e+002,4.811028e+001
6.132524e+002,4.831359e+001
6.151809e+002,4.855766e+001
6.171094e+002,4.882530e+001
6.190378e+002,4.909367e+001
6.209663e+002,4.934151e+001
6.228948e+002,4.955310e+001
6.248232e+002,4.971874e+001
6.267517e+002,4.983539e+001
6.286802e+002,4.990408e+001
6.306086e+002,4.992794e+001
6.325371e+002,4.991052e+001
6.344656e+002,4.985527e+001
6.363940e+002,4.976453e+001
6.383225e+002,4.963862e+001
6.402510e+002,4.947437e+001
6.421794e+002,4.926421e+001
6.441079e+002,4.899766e+001
6.460364e+002,4.866344e+001
6.479648e+002,4.825579e+001
6.498933e+002,4.777979e+001
6.518218e+002,4.725629e+001
6.537502e+002,4.671945e+001
6.556787e+002,4.621523e+001
6.576072e+002,4.579662e+001
6.595356e+002,4.551171e+001
6.614641e+002,4.540255e+001
6.633926e+002,4.549459e+001
6.653210e+002,4.578941e+001
6.672495e+002,4.625990e+001
6.691780e+002,4.685382e+001
6.711064e+002,4.750808e+001
6.730349e+002,4.815932e+001
6.749634e+002,4.876150e+001
6.768918e+002,4.928793e+001
6.788203e+002,4.972644e+001
6.807488e+002,5.007515e+001
6.826772e+002,5.033595e+001
6.846057e+002,5.051233e+001
6.865342e+002,5.060889e+001
6.884626e+002,5.063257e+001
6.903911e+002,5.059314e+001
6.923196e+002,5.050235e+001
6.942480e+002,5.037457e+001
6.961765e+002,5.022538e+001
6.981050e+002,5.007054e+001
7.000334e+002,4.992753e+001
7.019619e+002,4.981253e+001
7.038904e+002,4.973967e+001
7.058188e+002,4.971980e+001
7.077473e+002,4.975779e+001
7.096758e+002,4.985277e+001
7.116042e+002,4.999816e+001
7.135327e+002,5.018364e+001
7.154612e+002,5.039542e+001
7.173896e+002,5.061836e+001
7.193181e+002,5.083821e+001
7.212466e+002,5.104106e+001
7.231750e+002,5.121552e+001
7.251035e+002,5.135331e+001
7.270320e+002,5.144870e+001
7.289604e+002,5.149949e+001
7.308889e+002,5.150608e+001
7.328174e+002,5.147136e+001
7.347458e+002,5.139957e+001
7.366743e+002,5.129576e+001
7.386028e+002,5.116500e+001
7.405313e+002,5.101167e+001
7.424597e+002,5.083988e+001
7.443882e+002,5.065357e+001
7.463167e+002,5.045629e+001
7.482451e+002,5.025135e+001
7.501736e+002,5.004088e+001
7.521021e+002,4.982525e+001
7.540305e+002,4.960254e+001
7.559590e+002,4.936935e+001
7.578875e+002,4.912151e+001
7.598159e+002,4.885517e+001
7.617444e+002,4.856786e+001
7.636729e+002,4.825845e+001
7.656013e+002,4.792657e+001
7.675298e+002,4.757190e+001
7.694582e+002,4.719331e+001
7.713867e+002,4.678888e+001
7.733151e+002,4.635663e+001
7.752436e+002,4.589547e+001
7.771721e+002,4.540636e+001
7.791005e+002,4.489341e+001
7.810290e+002,4.436508e+001
7.829575e+002,4.383338e+001
7.848859e+002,4.331493e+001
7.868144e+002,4.283136e+001
7.887429e+002,4.240587e+001
7.906713e+002,4.206378e+001
7.925998e+002,4.182784e+001
7.945283e+002,4.171266e+001
7.964567e+002,4.172172e+001
7.983852e+002,4.184354e+001
8.003137e+002,4.205379e+001
8.022421e+002,4.231582e+001
8.041706e+002,4.258970e+001
8.060991e+002,4.283779e+001
8.080275e+002,4.302731e+001
8.099560e+002,4.313630e+001
8.118845e+002,4.315205e+001
8.138129e+002,4.307090e+001
8.157414e+002,4.289726e+001
8.176699e+002,4.264309e+001
8.195983e+002,4.232721e+001
8.215268e+002,4.197184e+001
8.234553e+002,4.160255e+001
8.253837e+002,4.124197e+001
8.273122e+002,4.090527e+001
8.292407e+002,4.059810e+001
8.311691e+002,4.031493e+001
8.330976e+002,4.004153e+001
8.350261e+002,3.975843e+001
8.369545e+002,3.944800e+001
8.388830e+002,3.909808e+001
8.408115e+002,3.870589e+001
8.427399e+002,3.827897e+001
8.446684e+002,3.783498e+001
8.465969e+002,3.739931e+001
8.485253e+002,3.699969e+001
8.504538e+002,3.666574e+001
8.523823e+002,3.642200e+001
8.543107e+002,3.628372e+001
8.562392e+002,3.625427e+001
8.581677e+002,3.632242e+001
8.600961e+002,3.646322e+001
8.620246e+002,3.663966e+001
8.639531e+002,3.681223e+001
8.658815e+002,3.694178e+001
8.678100e+002,3.699609e+001
8.697385e+002,3.695609e+001
8.716669e+002,3.681445e+001
8.735954e+002,3.657600e+001
8.755239e+002,3.625391e+001
8.774523e+002,3.586765e+001
8.793808e+002,3.543845e+001
8.813093e+002,3.498643e+001
8.832377e+002,3.453027e+001
8.851662e+002,3.408350e+001
8.870947e+002,3.365440e+001
8.890231e+002,3.324548e+001
8.909516e+002,3.285388e+001
8.928801e+002,3.247310e+001
8.948085e+002,3.209494e+001
8.967370e+002,3.171206e+001
8.986655e+002,3.131794e+001
9.005939e+002,3.090701e+001
9.025224e+002,3.047375e+001
9.044509e+002,3.001096e+001
9.063793e+002,2.951032e+001
9.083078e+002,2.896375e+001
9.102363e+002,2.836501e+001
9.121647e+002,2.771268e+001
9.140932e+002,2.701111e+001
9.160217e+002,2.627042e+001
9.179501e+002,2.550343e+001
9.198786e+002,2.472403e+001
9.218071e+002,2.394437e+001
9.237355e+002,2.317300e+001
9.256640e+002,2.241626e+001
9.275925e+002,2.167897e+001
9.295209e+002,2.096556e+001
9.314494e+002,2.028153e+001
9.333779e+002,1.963311e+001
9.353063e+002,1.902730e+001
9.372348e+002,1.847280e+001
9.391633e+002,1.797944e+001
9.410917e+002,1.755928e+001
9.430202e+002,1.722652e+001
9.449487e+002,1.699409e+001
9.468771e+002,1.687250e+001
9.488056e+002,1.686594e+001
9.507341e+002,1.697050e+001
9.526625e+002,1.717399e+001
9.545910e+002,1.745828e+001
9.565195e+002,1.780336e+001
9.584479e+002,1.818850e+001
9.603764e+002,1.859606e+001
9.623049e+002,1.901154e+001
9.642333e+002,1.942209e+001
9.661618e+002,1.981754e+001
9.680903e+002,2.018938e+001
9.700187e+002,2.053176e+001
9.719472e+002,2.084279e+001
9.738757e+002,2.112430e+001
9.758041e+002,2.138107e+001
9.777326e+002,2.161806e+001
9.796611e+002,2.183848e+001
9.815895e+002,2.204186e+001
9.835180e+002,2.222470e+001
9.854465e+002,2.238266e+001
9.873749e+002,2.251441e+001
9.893034e+002,2.262447e+001
9.912319e+002,2.272499e+001
9.931603e+002,2.283282e+001
9.950888e+002,2.296716e+001
9.970173e+002,2.314473e+001
9.989457e+002,2.337494e+001
1.000874e+003,2.365919e+001
1.002803e+003,2.399063e+001
1.004731e+003,2.435715e+001
1.006660e+003,2.474223e+001
1.008588e+003,2.512831e+001
1.010517e+003,2.549855e+001
1.012445e+003,2.583638e+001
1.014373e+003,2.612885e+001
1.016302e+003,2.636804e+001
1.018230e+003,2.655362e+001
1.020159e+003,2.669419e+001
1.022087e+003,2.680777e+001
1.024016e+003,2.691914e+001
1.025944e+003,2.705208e+001
1.027873e+003,2.722569e+001
1.029801e+003,2.744682e+001
1.031730e+003,2.770807e+001
1.033658e+003,2.798794e+001
1.035587e+003,2.825718e+001
1.037515e+003,2.848722e+001
1.039444e+003,2.865668e+001
1.041372e+003,2.876076e+001
1.043301e+003,2.881409e+001
1.045229e+003,2.885191e+001
1.047157e+003,2.892109e+001
1.049086e+003,2.907632e+001
1.051014e+003,2.936933e+001
1.052943e+003,2.983626e+001
1.054871e+003,3.049546e+001
1.056800e+003,3.134185e+001
1.058728e+003,3.235054e+001
1.060657e+003,3.347911e+001
1.062585e+003,3.467868e+001
1.064514e+003,3.590211e+001
1.066442e+003,3.710753e+001
1.068371e+003,3.826692e+001
1.070299e+003,3.936495e+001
1.072228e+003,4.039774e+001
1.074156e+003,4.136940e+001
1.076084e+003,4.228812e+001
1.078013e+003,4.316216e+001
1.079941e+003,4.399654e+001
1.081870e+003,4.479217e+001
1.083798e+003,4.554490e+001
1.085727e+003,4.624655e+001
1.087655e+003,4.688475e+001
1.089584e+003,4.744555e+001
1.091512e+003,4.791517e+001
1.093441e+003,4.828161e+001
1.095369e+003,4.853856e+001
1.097298e+003,4.868737e+001
1.099226e+003,4.873932e+001
1.101155e+003,4.871408e+001
1.103083e+003,4.863978e+001
1.105011e+003,4.854829e+001
1.106940e+003,4.846833e+001
1.108868e+003,4.842471e+001
1.110797e+003,4.843314e+001
1.112725e+003,4.850026e+001
1.114654e+003,4.862613e+001
1.116582e+003,4.880699e+001
1.118511e+003,4.903873e+001
1.120439e+003,4.931910e+001
1.122368e+003,4.964799e+001
1.124296e+003,5.002589e+001
1.126225e+003,5.045071e+001
1.128153e+003,5.091540e+001
1.130082e+003,5.140529e+001
1.132010e+003,5.189850e+001
1.133938e+003,5.237006e+001
1.135867e+003,5.279251e+001
1.137795e+003,5.314240e+001
1.139724e+003,5.340377e+001
1.141652e+003,5.356874e+001
1.143581e+003,5.363964e+001
1.145509e+003,5.362814e+001
1.147438e+003,5.355548e+001
1.149366e+003,5.344875e+001
1.151295e+003,5.334134e+001
1.153223e+003,5.327037e+001
1.155151e+003,5.326998e+001
1.157080e+003,5.337118e+001
1.159008e+003,5.359502e+001
1.160937e+003,5.394831e+001
1.162865e+003,5.442256e+001
1.164794e+003,5.499454e+001
1.166722e+003,5.563152e+001
1.168651e+003,5.629428e+001
1.170579e+003,5.694773e+001
1.172508e+003,5.756428e+001
1.174436e+003,5.812625e+001
1.176365e+003,5.862741e+001
1.178293e+003,5.906951e+001
1.180222e+003,5.945892e+001
1.182150e+003,5.980254e+001
1.184078e+003,6.010625e+001
1.186007e+003,6.037397e+001
1.187935e+003,6.060889e+001
1.189864e+003,6.081554e+001
1.191792e+003,6.100132e+001
1.193721e+003,6.117678e+001
1.195649e+003,6.135603e+001
1.197578e+003,6.155336e+001
1.199506e+003,6.178172e+001
1.201435e+003,6.205044e+001
1.203363e+003,6.236292e+001
1.205292e+003,6.271645e+001
1.207220e+003,6.310223e+001
1.209149e+003,6.350788e+001
1.211077e+003,6.391804e+001
1.213005e+003,6.431770e+001
1.214934e+003,6.469507e+001
1.216862e+003,6.504208e+001
1.218791e+003,6.535632e+001
1.220719e+003,6.564068e+001
1.222648e+003,6.590268e+001
1.224576e+003,6.615190e+001
1.226505e+003,6.639870e+001
1.228433e+003,6.665222e+001
1.230362e+003,6.691851e+001
1.232290e+003,6.720057e+001
1.234219e+003,6.749836e+001
1.236147e+003,6.780964e+001
1.238076e+003,6.813062e+001
1.240004e+003,6.845703e+001
1.241932e+003,6.878503e+001
1.243861e+003,6.911130e+001
1.245789e+003,6.943402e+001
1.247718e+003,6.975314e+001
1.249646e+003,7.007066e+001
1.251575e+003,7.039028e+001
1.253503e+003,7.071687e+001
1.255432e+003,7.105505e+001
1.257360e+003,7.140714e+001
1.259289e+003,7.177193e+001
1.261217e+003,7.214387e+001
1.263146e+003,7.251452e+001
1.265074e+003,7.287430e+001
1.267003e+003,7.321609e+001
1.268931e+003,7.353742e+001
1.270859e+003,7.384147e+001
1.272788e+003,7.413604e+001
1.274716e+003,7.443146e+001
1.276645e+003,7.473831e+001
1.278573e+003,7.506402e+001
1.280502e+003,7.541131e+001
1.282430e+003,7.577699e+001
1.284359e+003,7.615302e+001
1.286287e+003,7.652666e+001
1.288216e+003,7.688294e+001
1.290144e+003,7.720755e+001
1.292073e+003,7.748685e+001
1.294001e+003,7.771063e+001
1.295930e+003,7.787276e+001
1.297858e+003,7.797153e+001
1.299786e+003,7.801028e+001
1.301715e+003,7.799766e+001
1.303643e+003,7.794816e+001
1.305572e+003,7.787996e+001
1.307500e+003,7.781521e+001
1.309429e+003,7.777733e+001
1.311357e+003,7.778565e+001
1.313286e+003,7.785376e+001
1.315214e+003,7.798429e+001
1.317143e+003,7.816817e+001
1.319071e+003,7.838463e+001
1.321000e+003,7.860689e+001
1.322928e+003,7.880911e+001
1.324857e+003,7.897087e+001
1.326785e+003,7.908389e+001
1.328714e+003,7.915229e+001
1.330642e+003,7.919141e+001
1.332570e+003,7.922150e+001
1.334499e+003,7.926315e+001
1.336427e+003,7.933047e+001
1.338356e+003,7.942612e+001
1.340284e+003,7.954162e+001
1.342213e+003,7.966059e+001
1.344141e+003,7.976612e+001
1.346070e+003,7.984446e+001
1.347998e+003,7.988988e+001
1.349927e+003,7.990389e+001
1.351855e+003,7.989323e+001
1.353784e+003,7.986630e+001
1.355712e+003,7.983113e+001
1.357641e+003,7.979403e+001
1.359569e+003,7.975913e+001
1.361497e+003,7.973005e+001
1.363426e+003,7.971098e+001
1.365354e+003,7.970702e+001
1.367283e+003,7.972418e+001
1.369211e+003,7.976767e+001
1.371140e+003,7.983974e+001
1.373068e+003,7.993848e+001
1.374997e+003,8.005745e+001
1.376925e+003,8.018657e+001
1.378854e+003,8.031312e+001
1.380782e+003,8.042517e+001
1.382711e+003,8.051233e+001
1.384639e+003,8.056705e+001
1.386568e+003,8.058596e+001
1.388496e+003,8.056968e+001
1.390424e+003,8.052326e+001
1.392353e+003,8.045493e+001
1.394281e+003,8.037559e+001
1.396210e+003,8.029572e+001
1.398138e+003,8.022227e+001
1.400067e+003,8.015736e+001
1.401995e+003,8.009752e+001
1.403924e+003,8.003545e+001
1.405852e+003,7.996181e+001
1.407781e+003,7.986835e+001
1.409709e+003,7.974912e+001
1.411638e+003,7.960234e+001
1.413566e+003,7.943139e+001
1.415495e+003,7.924638e+001
1.417423e+003,7.906354e+001
1.419351e+003,7.890124e+001
1.421280e+003,7.877749e+001
1.423208e+003,7.870387e+001
1.425137e+003,7.868356e+001
1.427065e+003,7.871163e+001
1.428994e+003,7.877699e+001
1.430922e+003,7.886440e+001
1.432851e+003,7.895576e+001
1.434779e+003,7.903468e+001
1.436708e+003,7.908817e+001
1.438636e+003,7.910943e+001
1.440565e+003,7.909816e+001
1.442493e+003,7.905749e+001
1.444422e+003,7.899019e+001
1.446350e+003,7.889553e+001
1.448278e+003,7.876828e+001
1.450207e+003,7.859970e+001
1.452135e+003,7.838094e+001
1.454064e+003,7.810677e+001
1.455992e+003,7.777850e+001
1.457921e+003,7.740215e+001
1.459849e+003,7.698325e+001
1.461778e+003,7.652309e+001
1.463706e+003,7.601935e+001
1.465635e+003,7.547287e+001
1.467563e+003,7.489532e+001
1.469492e+003,7.431769e+001
1.471420e+003,7.378811e+001
1.473349e+003,7.335774e+001
1.475277e+003,7.306979e+001
1.477205e+003,7.294408e+001
1.479134e+003,7.297977e+001
1.481062e+003,7.316631e+001
1.482991e+003,7.349436e+001
1.484919e+003,7.395972e+001
1.486848e+003,7.455791e+001
1.488776e+003,7.527740e+001
1.490705e+003,7.608919e+001
1.492633e+003,7.694748e+001
1.494562e+003,7.780349e+001
1.496490e+003,7.861156e+001
1.498419e+003,7.933993e+001
1.500347e+003,7.997063e+001
1.502276e+003,8.049294e+001
1.504204e+003,8.090175e+001
1.506132e+003,8.119746e+001
1.508061e+003,8.139018e+001
1.509989e+003,8.149768e+001
1.511918e+003,8.154301e+001
1.513846e+003,8.154832e+001
1.515775e+003,8.152838e+001
1.517703e+003,8.149171e+001
1.519632e+003,8.144234e+001
1.521560e+003,8.138334e+001
1.523489e+003,8.131935e+001
1.525417e+003,8.125613e+001
1.527346e+003,8.119786e+001
1.529274e+003,8.114571e+001
1.531203e+003,8.109653e+001
1.533131e+003,8.104397e+001
1.535059e+003,8.098053e+001
1.536988e+003,8.090180e+001
1.538916e+003,8.081034e+001
1.540845e+003,8.071663e+001
1.542773e+003,8.063323e+001
1.544702e+003,8.056777e+001
1.546630e+003,8.051881e+001
1.548559e+003,8.047826e+001
1.550487e+003,8.043449e+001
1.552416e+003,8.037692e+001
1.554344e+003,8.029972e+001
1.556273e+003,8.020460e+001
1.558201e+003,8.010101e+001
1.560130e+003,8.000132e+001
1.562058e+003,7.991400e+001
1.563986e+003,7.983984e+001
1.565915e+003,7.977367e+001
1.567843e+003,7.970818e+001
1.569772e+003,7.963810e+001
1.571700e+003,7.956133e+001
1.573629e+003,7.947973e+001
1.575557e+003,7.939688e+001
1.577486e+003,7.931623e+001
1.579414e+003,7.923886e+001
1.581343e+003,7.916364e+001
1.583271e+003,7.908811e+001
1.585200e+003,7.901019e+001
1.587128e+003,7.892884e+001
1.589057e+003,7.884415e+001
1.590985e+003,7.875640e+001
1.592913e+003,7.866515e+001
1.594842e+003,7.856897e+001
1.596770e+003,7.846592e+001
1.598699e+003,7.835459e+001
1.600627e+003,7.823524e+001
1.602556e+003,7.810981e+001
1.604484e+003,7.798119e+001
1.606413e+003,7.785146e+001
1.608341e+003,7.772069e+001
1.610270e+003,7.758685e+001
1.612198e+003,7.744717e+001
1.614127e+003,7.730025e+001
1.616055e+003,7.714835e+001
1.617984e+003,7.699733e+001
1.619912e+003,7.685510e+001
1.621840e+003,7.672807e+001
1.623769e+003,7.661850e+001
1.625697e+003,7.652480e+001
1.627626e+003,7.644353e+001
1.629554e+003,7.637221e+001
1.631483e+003,7.631094e+001
1.633411e+003,7.626245e+001
1.635340e+003,7.622998e+001
1.637268e+003,7.621503e+001
1.639197e+003,7.621597e+001
1.641125e+003,7.622866e+001
1.643054e+003,7.624821e+001
1.644982e+003,7.627159e+001
1.646911e+003,7.629848e+001
1.648839e+003,7.633123e+001
1.650767e+003,7.637228e+001
1.652696e+003,7.642216e+001
1.654624e+003,7.647840e+001
1.656553e+003,7.653736e+001
1.658481e+003,7.659660e+001
1.660410e+003,7.665630e+001
1.662338e+003,7.671901e+001
1.664267e+003,7.678842e+001
1.666195e+003,7.686757e+001
1.668124e+003,7.695744e+001
1.670052e+003,7.705608e+001
1.671981e+003,7.716006e+001
1.673909e+003,7.726562e+001
1.675838e+003,7.737074e+001
1.677766e+003,7.747528e+001
1.679694e+003,7.757985e+001
1.681623e+003,7.768425e+001
1.683551e+003,7.778687e+001
1.685480e+003,7.788519e+001
1.687408e+003,7.797758e+001
1.689337e+003,7.806464e+001
1.691265e+003,7.814950e+001
1.693194e+003,7.823672e+001
1.695122e+003,7.833066e+001
1.697051e+003,7.843297e+001
1.698979e+003,7.854129e+001
1.700908e+003,7.865027e+001
1.702836e+003,7.875504e+001
1.704765e+003,7.885427e+001
1.706693e+003,7.895081e+001
1.708621e+003,7.904992e+001
1.710550e+003,7.915653e+001
1.712478e+003,7.927301e+001
1.714407e+003,7.939761e+001
1.716335e+003,7.952489e+001
1.718264e+003,7.964806e+001
1.720192e+003,7.976274e+001
1.722121e+003,7.986867e+001
1.724049e+003,7.996905e+001
1.725978e+003,8.006854e+001
1.727906e+003,8.017136e+001
1.729835e+003,8.027995e+001
1.731763e+003,8.039463e+001
1.733692e+003,8.051424e+001
1.735620e+003,8.063730e+001
1.737548e+003,8.076311e+001
1.739477e+003,8.089202e+001
1.741405e+003,8.102448e+001
1.743334e+003,8.115996e+001
1.745262e+003,8.129647e+001
1.747191e+003,8.143124e+001
1.749119e+003,8.156173e+001
1.751048e+003,8.168687e+001
1.752976e+003,8.180747e+001
1.754905e+003,8.192535e+001
1.756833e+003,8.204194e+001
1.758762e+003,8.215731e+001
1.760690e+003,8.227010e+001
1.762619e+003,8.237867e+001
1.764547e+003,8.248249e+001
1.766475e+003,8.258313e+001
1.768404e+003,8.268414e+001
1.770332e+003,8.278957e+001
1.772261e+003,8.290208e+001
1.774189e+003,8.302100e+001
1.776118e+003,8.314297e+001
1.778046e+003,8.326369e+001
1.779975e+003,8.338027e+001
1.781903e+003,8.349197e+001
1.783832e+003,8.360021e+001
1.785760e+003,8.370691e+001
1.787689e+003,8.381297e+001
1.789617e+003,8.391728e+001
1.791546e+003,8.401713e+001
1.793474e+003,8.410983e+001
1.795402e+003,8.419504e+001
1.797331e+003,8.427567e+001
1.799259e+003,8.435698e+001
1.801188e+003,8.444391e+001
1.803116e+003,8.453896e+001
1.805045e+003,8.464088e+001
1.806973e+003,8.474571e+001
1.808902e+003,8.484806e+001
1.810830e+003,8.494400e+001
1.812759e+003,8.503278e+001
1.814687e+003,8.511670e+001
1.816616e+003,8.519975e+001
1.818544e+003,8.528526e+001
1.820473e+003,8.537434e+001
1.822401e+003,8.546524e+001
1.824329e+003,8.555483e+001
1.826258e+003,8.564073e+001
1.828186e+003,8.572308e+001
1.830115e+003,8.580490e+001
1.832043e+003,8.588995e+001
1.833972e+003,8.598042e+001
1.835900e+003,8.607550e+001
1.837829e+003,8.617165e+001
1.839757e+003,8.626446e+001
1.841686e+003,8.635062e+001
1.843614e+003,8.642985e+001
1.845543e+003,8.650462e+001
1.847471e+003,8.657871e+001
1.849400e+003,8.665427e+001
1.851328e+003,8.673081e+001
1.853256e+003,8.680554e+001
1.855185e+003,8.687553e+001
1.857113e+003,8.693943e+001
1.859042e+003,8.699879e+001
1.860970e+003,8.705732e+001
1.862899e+003,8.711926e+001
1.864827e+003,8.718683e+001
1.866756e+003,8.725883e+001
1.868684e+003,8.733089e+001
1.870613e+003,8.739832e+001
1.872541e+003,8.745860e+001
1.874470e+003,8.751290e+001
1.876398e+003,8.756519e+001
1.878327e+003,8.762033e+001
1.880255e+003,8.768201e+001
1.882183e+003,8.775140e+001
1.884112e+003,8.782756e+001
1.886040e+003,8.790869e+001
1.887969e+003,8.799355e+001
1.889897e+003,8.808157e+001
1.891826e+003,8.817238e+001
1.893754e+003,8.826431e+001
1.895683e+003,8.835314e+001
1.897611e+003,8.843309e+001
1.899540e+003,8.849873e+001
1.901468e+003,8.854726e+001
1.903396e+003,8.858053e+001
1.905325e+003,8.860458e+001
1.907253e+003,8.862750e+001
1.909182e+003,8.865580e+001
1.911110e+003,8.869301e+001
1.913039e+003,8.873873e+001
1.914967e+003,8.879128e+001
1.916896e+003,8.884978e+001
1.918824e+003,8.891628e+001
1.920753e+003,8.899471e+001
1.922681e+003,8.908831e+001
1.924610e+003,8.919633e+001
1.926538e+003,8.931295e+001
1.928467e+003,8.942814e+001
1.930395e+003,8.953297e+001
1.932323e+003,8.962291e+001
1.934252e+003,8.970107e+001
1.936180e+003,8.977597e+001
1.938109e+003,8.985815e+001
1.940037e+003,8.995316e+001
1.941966e+003,9.005817e+001
1.943894e+003,9.016257e+001
1.945823e+003,9.025425e+001
1.947751e+003,9.032700e+001
1.949680e+003,9.038585e+001
1.951608e+003,9.044532e+001
1.953537e+003,9.052430e+001
1.955465e+003,9.063763e+001
1.957394e+003,9.078954e+001
1.959322e+003,9.097260e+001
1.961250e+003,9.117215e+001
1.963179e+003,9.137474e+001
1.965107e+003,9.157286e+001
1.967036e+003,9.176563e+001
1.968964e+003,9.195175e+001
1.970893e+003,9.212057e+001
1.972821e+003,9.224888e+001
1.974750e+003,9.230805e+001
1.976678e+003,9.227681e+001
1.978607e+003,9.215601e+001
1.980535e+003,9.196953e+001
1.982464e+003,9.175663e+001
1.984392e+003,9.155321e+001
1.986321e+003,9.138525e+001
1.988249e+003,9.126270e+001
1.990177e+003,9.118300e+001
1.992106e+003,9.113902e+001
1.994034e+003,9.112635e+001
1.995963e+003,9.114635e+001
1.997891e+003,9.120428e+001
1.999820e+003,9.130293e+001
2.001748e+003,9.143692e+001
2.003677e+003,9.158823e+001
2.005605e+003,9.173237e+001
2.007534e+003,9.184504e+001
2.009462e+003,9.191454e+001
2.011391e+003,9.194762e+001
2.013319e+003,9.196688e+001
2.015248e+003,9.199869e+001
2.017176e+003,9.205956e+001
2.019104e+003,9.214895e+001
2.021033e+003,9.224951e+001
2.022961e+003,9.233620e+001
2.024890e+003,9.238502e+001
2.026818e+003,9.238300e+001
2.028747e+003,9.232925e+001
2.030675e+003,9.223024e+001
2.032604e+003,9.209370e+001
2.034532e+003,9.192628e+001
2.036461e+003,9.173457e+001
2.038389e+003,9.152787e+001
2.040318e+003,9.132053e+001
2.042246e+003,9.112860e+001
2.044175e+003,9.096364e+001
2.046103e+003,9.082899e+001
2.048031e+003,9.071861e+001
2.049960e+003,9.062030e+001
2.051888e+003,9.052164e+001
2.053817e+003,9.041561e+001
2.055745e+003,9.030276e+001
2.057674e+003,9.019015e+001
2.059602e+003,9.008634e+001
2.061531e+003,8.999818e+001
2.063459e+003,8.992699e+001
2.065388e+003,8.986900e+001
2.067316e+003,8.981749e+001
2.069245e+003,8.976632e+001
2.071173e+003,8.971268e+001
2.073102e+003,8.965643e+001
2.075030e+003,8.959870e+001
2.076958e+003,8.953945e+001
2.078887e+003,8.947662e+001
2.080815e+003,8.940744e+001
2.082744e+003,8.933057e+001
2.084672e+003,8.924857e+001
2.086601e+003,8.916750e+001
2.088529e+003,8.909607e+001
2.090458e+003,8.904161e+001
2.092386e+003,8.900645e+001
2.094315e+003,8.898609e+001
2.096243e+003,8.897047e+001
2.098172e+003,8.894774e+001
2.100100e+003,8.890820e+001
2.102029e+003,8.884872e+001
2.103957e+003,8.877261e+001
2.105885e+003,8.868763e+001
2.107814e+003,8.860194e+001
2.109742e+003,8.852142e+001
2.111671e+003,8.844906e+001
2.113599e+003,8.838546e+001
2.115528e+003,8.833094e+001
2.117456e+003,8.828673e+001
2.119385e+003,8.825510e+001
2.121313e+003,8.823838e+001
2.123242e+003,8.823756e+001
2.125170e+003,8.825165e+001
2.127099e+003,8.827817e+001
2.129027e+003,8.831546e+001
2.130956e+003,8.836525e+001
2.132884e+003,8.843396e+001
2.134813e+003,8.853162e+001
2.136741e+003,8.866815e+001
2.138669e+003,8.884818e+001
2.140598e+003,8.906766e+001
2.142526e+003,8.931349e+001
2.144455e+003,8.956876e+001
2.146383e+003,8.982038e+001
2.148312e+003,9.006333e+001
2.150240e+003,9.030132e+001
2.152169e+003,9.053972e+001
2.154097e+003,9.077646e+001
2.156026e+003,9.099351e+001
2.157954e+003,9.115808e+001
2.159883e+003,9.123425e+001
2.161811e+003,9.120216e+001
2.163740e+003,9.106645e+001
2.165668e+003,9.085428e+001
2.167596e+003,9.060108e+001
2.169525e+003,9.034219e+001
2.171453e+003,9.010444e+001
2.173382e+003,8.990304e+001
2.175310e+003,8.974577e+001
2.177239e+003,8.963351e+001
2.179167e+003,8.956287e+001
2.181096e+003,8.952681e+001
2.183024e+003,8.951558e+001
2.184953e+003,8.951617e+001
2.186881e+003,8.951369e+001
2.188810e+003,8.949491e+001
2.190738e+003,8.945014e+001
2.192667e+003,8.937600e+001
2.194595e+003,8.927529e+001
2.196523e+003,8.915535e+001
2.198452e+003,8.902513e+001
2.200380e+003,8.889221e+001
2.202309e+003,8.876273e+001
2.204237e+003,8.864063e+001
2.206166e+003,8.852882e+001
2.208094e+003,8.842976e+001
2.210023e+003,8.834487e+001
2.211951e+003,8.827322e+001
2.213880e+003,8.821033e+001
2.215808e+003,8.814914e+001
2.217737e+003,8.808107e+001
2.219665e+003,8.799933e+001
2.221594e+003,8.790257e+001
2.223522e+003,8.779523e+001
2.225450e+003,8.768668e+001
2.227379e+003,8.758699e+001
2.229307e+003,8.750405e+001
2.231236e+003,8.743989e+001
2.233164e+003,8.739092e+001
2.235093e+003,8.734953e+001
2.237021e+003,8.730801e+001
2.238950e+003,8.726126e+001
2.240878e+003,8.720802e+001
2.242807e+003,8.715047e+001
2.244735e+003,8.709218e+001
2.246664e+003,8.703612e+001
2.248592e+003,8.698315e+001
2.250521e+003,8.693253e+001
2.252449e+003,8.688268e+001
2.254377e+003,8.683235e+001
2.256306e+003,8.678101e+001
2.258234e+003,8.672873e+001
2.260163e+003,8.667530e+001
2.262091e+003,8.661991e+001
2.264020e+003,8.656142e+001
2.265948e+003,8.649905e+001
2.267877e+003,8.643342e+001
2.269805e+003,8.636663e+001
2.271734e+003,8.630165e+001
2.273662e+003,8.624085e+001
2.275591e+003,8.618437e+001
2.277519e+003,8.612975e+001
2.279448e+003,8.607252e+001
2.281376e+003,8.600838e+001
2.283304e+003,8.593452e+001
2.285233e+003,8.585139e+001
2.287161e+003,8.576234e+001
2.289090e+003,8.567266e+001
2.291018e+003,8.558749e+001
2.292947e+003,8.551079e+001
2.294875e+003,8.544448e+001
2.296804e+003,8.538845e+001
2.298732e+003,8.534167e+001
2.300661e+003,8.530301e+001
2.302589e+003,8.527199e+001
2.304518e+003,8.524863e+001
2.306446e+003,8.523279e+001
2.308375e+003,8.522351e+001
2.310303e+003,8.521813e+001
2.312231e+003,8.521294e+001
2.314160e+003,8.520384e+001
2.316088e+003,8.518775e+001
2.318017e+003,8.516383e+001
2.319945e+003,8.513374e+001
2.321874e+003,8.510125e+001
2.323802e+003,8.507053e+001
2.325731e+003,8.504531e+001
2.327659e+003,8.502766e+001
2.329588e+003,8.501783e+001
2.331516e+003,8.501449e+001
2.333445e+003,8.501554e+001
2.335373e+003,8.501921e+001
2.337302e+003,8.502445e+001
2.339230e+003,8.503165e+001
2.341158e+003,8.504220e+001
2.343087e+003,8.505818e+001
2.345015e+003,8.508160e+001
2.346944e+003,8.511418e+001
2.348872e+003,8.515700e+001
2.350801e+003,8.521033e+001
2.352729e+003,8.527288e+001
2.354658e+003,8.534137e+001
2.356586e+003,8.541065e+001
2.358515e+003,8.547411e+001
2.360443e+003,8.552651e+001
2.362372e+003,8.556623e+001
2.364300e+003,8.559661e+001
2.366229e+003,8.562357e+001
2.368157e+003,8.565337e+001
2.370085e+003,8.569024e+001
2.372014e+003,8.573547e+001
2.373942e+003,8.578840e+001
2.375871e+003,8.584729e+001
2.377799e+003,8.591038e+001
2.379728e+003,8.597601e+001
2.381656e+003,8.604305e+001
2.383585e+003,8.611059e+001
2.385513e+003,8.617787e+001
2.387442e+003,8.624447e+001
2.389370e+003,8.631041e+001
2.391299e+003,8.637629e+001
2.393227e+003,8.644321e+001
2.395156e+003,8.651241e+001
2.397084e+003,8.658476e+001
2.399012e+003,8.666018e+001
2.400941e+003,8.673740e+001
2.402869e+003,8.681446e+001
2.404798e+003,8.688927e+001
2.406726e+003,8.696048e+001
2.408655e+003,8.702786e+001
2.410583e+003,8.709232e+001
2.412512e+003,8.715536e+001
2.414440e+003,8.721827e+001
2.416369e+003,8.728174e+001
2.418297e+003,8.734571e+001
2.420226e+003,8.740965e+001
2.422154e+003,8.747316e+001
2.424083e+003,8.753615e+001
2.426011e+003,8.759894e+001
2.427939e+003,8.766180e+001
2.429868e+003,8.772483e+001
2.431796e+003,8.778759e+001
2.433725e+003,8.784930e+001
2.435653e+003,8.790930e+001
2.437582e+003,8.796722e+001
2.439510e+003,8.802307e+001
2.441439e+003,8.807690e+001
2.443367e+003,8.812832e+001
2.445296e+003,8.817616e+001
2.447224e+003,8.821870e+001
2.449153e+003,8.825429e+001
2.451081e+003,8.828204e+001
2.453010e+003,8.830264e+001
2.454938e+003,8.831825e+001
2.456866e+003,8.833213e+001
2.458795e+003,8.834738e+001
2.460723e+003,8.836649e+001
2.462652e+003,8.839052e+001
2.464580e+003,8.841911e+001
2.466509e+003,8.845087e+001
2.468437e+003,8.848399e+001
2.470366e+003,8.851653e+001
2.472294e+003,8.854673e+001
2.474223e+003,8.857311e+001
2.476151e+003,8.859450e+001
2.478080e+003,8.861015e+001
2.480008e+003,8.862002e+001
2.481937e+003,8.862497e+001
2.483865e+003,8.862679e+001
2.485793e+003,8.862737e+001
2.487722e+003,8.862868e+001
2.489650e+003,8.863178e+001
2.491579e+003,8.863670e+001
2.493507e+003,8.864265e+001
2.495436e+003,8.864850e+001
2.497364e+003,8.865336e+001
2.499293e+003,8.865681e+001
2.501221e+003,8.865890e+001
2.503150e+003,8.865973e+001
2.505078e+003,8.865907e+001
2.507007e+003,8.865631e+001
2.508935e+003,8.865047e+001
2.510864e+003,8.864084e+001
2.512792e+003,8.862723e+001
2.514720e+003,8.861018e+001
2.516649e+003,8.859064e+001
2.518577e+003,8.856953e+001
2.520506e+003,8.854749e+001
2.522434e+003,8.852473e+001
2.524363e+003,8.850132e+001
2.526291e+003,8.847775e+001
2.528220e+003,8.845498e+001
2.530148e+003,8.843445e+001
2.532077e+003,8.841749e+001
2.534005e+003,8.840446e+001
2.535934e+003,8.839451e+001
2.537862e+003,8.838538e+001
2.539791e+003,8.837445e+001
2.541719e+003,8.835928e+001
2.543647e+003,8.833865e+001
2.545576e+003,8.831280e+001
2.547504e+003,8.828310e+001
2.549433e+003,8.825108e+001
2.551361e+003,8.821777e+001
2.553290e+003,8.818326e+001
2.555218e+003,8.814685e+001
2.557147e+003,8.810778e+001
2.559075e+003,8.806581e+001
2.561004e+003,8.802175e+001
2.562932e+003,8.797717e+001
2.564861e+003,8.793384e+001
2.566789e+003,8.789312e+001
2.568718e+003,8.785535e+001
2.570646e+003,8.781985e+001
2.572574e+003,8.778516e+001
2.574503e+003,8.774937e+001
2.576431e+003,8.771090e+001
2.578360e+003,8.766842e+001
2.580288e+003,8.762125e+001
2.582217e+003,8.756921e+001
2.584145e+003,8.751263e+001
2.586074e+003,8.745249e+001
2.588002e+003,8.739021e+001
2.589931e+003,8.732756e+001
2.591859e+003,8.726617e+001
2.593788e+003,8.720708e+001
2.595716e+003,8.715032e+001
2.597645e+003,8.709505e+001
2.599573e+003,8.703975e+001
2.601501e+003,8.698278e+001
2.603430e+003,8.692309e+001
2.605358e+003,8.686036e+001
2.607287e+003,8.679496e+001
2.609215e+003,8.672771e+001
2.611144e+003,8.665915e+001
2.613072e+003,8.658966e+001
2.615001e+003,8.651920e+001
2.616929e+003,8.644792e+001
2.618858e+003,8.637610e+001
2.620786e+003,8.630460e+001
2.622715e+003,8.623446e+001
2.624643e+003,8.616653e+001
2.626572e+003,8.610110e+001
2.628500e+003,8.603761e+001
2.630428e+003,8.597497e+001
2.632357e+003,8.591182e+001
2.634285e+003,8.584715e+001
2.636214e+003,8.578065e+001
2.638142e+003,8.571267e+001
2.640071e+003,8.564383e+001
2.641999e+003,8.557465e+001
2.643928e+003,8.550531e+001
2.645856e+003,8.543545e+001
2.647785e+003,8.536450e+001
2.649713e+003,8.529213e+001
2.651642e+003,8.521848e+001
2.653570e+003,8.514437e+001
2.655499e+003,8.507129e+001
2.657427e+003,8.500087e+001
2.659355e+003,8.493470e+001
2.661284e+003,8.487408e+001
2.663212e+003,8.481963e+001
2.665141e+003,8.477155e+001
2.667069e+003,8.472959e+001
2.668998e+003,8.469299e+001
2.670926e+003,8.466061e+001
2.672855e+003,8.463104e+001
2.674783e+003,8.460275e+001
2.676712e+003,8.457422e+001
2.678640e+003,8.454450e+001
2.680569e+003,8.451333e+001
2.682497e+003,8.448127e+001
2.684426e+003,8.444954e+001
2.686354e+003,8.441949e+001
2.688282e+003,8.439230e+001
2.690211e+003,8.436829e+001
2.692139e+003,8.434700e+001
2.694068e+003,8.432728e+001
2.695996e+003,8.430782e+001
2.697925e+003,8.428740e+001
2.699853e+003,8.426540e+001
2.701782e+003,8.424171e+001
2.703710e+003,8.421680e+001
2.705639e+003,8.419124e+001
2.707567e+003,8.416564e+001
2.709496e+003,8.414066e+001
2.711424e+003,8.411695e+001
2.713353e+003,8.409526e+001
2.715281e+003,8.407642e+001
2.717209e+003,8.406112e+001
2.719138e+003,8.404970e+001
2.721066e+003,8.404194e+001
2.722995e+003,8.403717e+001
2.724923e+003,8.403427e+001
2.726852e+003,8.403229e+001
2.728780e+003,8.403055e+001
2.730709e+003,8.402881e+001
2.732637e+003,8.402715e+001
2.734566e+003,8.402560e+001
2.736494e+003,8.402393e+001
2.738423e+003,8.402150e+001
2.740351e+003,8.401743e+001
2.742280e+003,8.401102e+001
2.744208e+003,8.400215e+001
2.746136e+003,8.399146e+001
2.748065e+003,8.398035e+001
2.749993e+003,8.397035e+001
2.751922e+003,8.396286e+001
2.753850e+003,8.395847e+001
2.755779e+003,8.395695e+001
2.757707e+003,8.395731e+001
2.759636e+003,8.395831e+001
2.761564e+003,8.395884e+001
2.763493e+003,8.395827e+001
2.765421e+003,8.395657e+001
2.767350e+003,8.395417e+001
2.769278e+003,8.395177e+001
2.771207e+003,8.395006e+001
2.773135e+003,8.394952e+001
2.775063e+003,8.395050e+001
2.776992e+003,8.395299e+001
2.778920e+003,8.395679e+001
2.780849e+003,8.396140e+001
2.782777e+003,8.396619e+001
2.784706e+003,8.397033e+001
2.786634e+003,8.397308e+001
2.788563e+003,8.397382e+001
2.790491e+003,8.397224e+001
2.792420e+003,8.396832e+001
2.794348e+003,8.396232e+001
2.796277e+003,8.395471e+001
2.798205e+003,8.394599e+001
2.800134e+003,8.393684e+001
2.802062e+003,8.392805e+001
2.803990e+003,8.392033e+001
2.805919e+003,8.391438e+001
2.807847e+003,8.391051e+001
2.809776e+003,8.390842e+001
2.811704e+003,8.390701e+001
2.813633e+003,8.390465e+001
2.815561e+003,8.389943e+001
2.817490e+003,8.388977e+001
2.819418e+003,8.387500e+001
2.821347e+003,8.385535e+001
2.823275e+003,8.383182e+001
2.825204e+003,8.380554e+001
2.827132e+003,8.377709e+001
2.829061e+003,8.374596e+001
2.830989e+003,8.371066e+001
2.832917e+003,8.366920e+001
2.834846e+003,8.362012e+001
2.836774e+003,8.356337e+001
2.838703e+003,8.350104e+001
2.840631e+003,8.343685e+001
2.842560e+003,8.337604e+001
2.844488e+003,8.332393e+001
2.846417e+003,8.328450e+001
2.848345e+003,8.325981e+001
2.850274e+003,8.324946e+001
2.852202e+003,8.325107e+001
2.854131e+003,8.326092e+001
2.856059e+003,8.327518e+001
2.857988e+003,8.329082e+001
2.859916e+003,8.330587e+001
2.861844e+003,8.331969e+001
2.863773e+003,8.333253e+001
2.865701e+003,8.334508e+001
2.867630e+003,8.335769e+001
2.869558e+003,8.337019e+001
2.871487e+003,8.338152e+001
2.873415e+003,8.339007e+001
2.875344e+003,8.339396e+001
2.877272e+003,8.339173e+001
2.879201e+003,8.338292e+001
2.881129e+003,8.336838e+001
2.883058e+003,8.335020e+001
2.884986e+003,8.333134e+001
2.886915e+003,8.331516e+001
2.888843e+003,8.330432e+001
2.890771e+003,8.330071e+001
2.892700e+003,8.330494e+001
2.894628e+003,8.331668e+001
2.896557e+003,8.333488e+001
2.898485e+003,8.335831e+001
2.900414e+003,8.338614e+001
2.902342e+003,8.341792e+001
2.904271e+003,8.345398e+001
2.906199e+003,8.349530e+001
2.908128e+003,8.354355e+001
2.910056e+003,8.360056e+001
2.911985e+003,8.366816e+001
2.913913e+003,8.374746e+001
2.915842e+003,8.383831e+001
2.917770e+003,8.393884e+001
2.919698e+003,8.404538e+001
2.921627e+003,8.415338e+001
2.923555e+003,8.425790e+001
2.925484e+003,8.435509e+001
2.927412e+003,8.444305e+001
2.929341e+003,8.452195e+001
2.931269e+003,8.459371e+001
2.933198e+003,8.466117e+001
2.935126e+003,8.472739e+001
2.937055e+003,8.479469e+001
2.938983e+003,8.486459e+001
2.940912e+003,8.493771e+001
2.942840e+003,8.501397e+001
2.944769e+003,8.509270e+001
2.946697e+003,8.517256e+001
2.948625e+003,8.525169e+001
2.950554e+003,8.532769e+001
2.952482e+003,8.539803e+001
2.954411e+003,8.546104e+001
2.956339e+003,8.551651e+001
2.958268e+003,8.556623e+001
2.960196e+003,8.561400e+001
2.962125e+003,8.566515e+001
2.964053e+003,8.572485e+001
2.965982e+003,8.579723e+001
2.967910e+003,8.588441e+001
2.969839e+003,8.598612e+001
2.971767e+003,8.610004e+001
2.973696e+003,8.622231e+001
2.975624e+003,8.634862e+001
2.977552e+003,8.647432e+001
2.979481e+003,8.659498e+001
2.981409e+003,8.670711e+001
2.983338e+003,8.680798e+001
2.985266e+003,8.689641e+001
2.987195e+003,8.697279e+001
2.989123e+003,8.703917e+001
2.991052e+003,8.709843e+001
2.992980e+003,8.715361e+001
2.994909e+003,8.720696e+001
2.996837e+003,8.725906e+001
2.998766e+003,8.730888e+001
3.000694e+003,8.735413e+001
3.002623e+003,8.739241e+001
3.004551e+003,8.742181e+001
3.006479e+003,8.744176e+001
3.008408e+003,8.745292e+001
3.010336e+003,8.745693e+001
3.012265e+003,8.745553e+001
3.014193e+003,8.745003e+001
3.016122e+003,8.744116e+001
3.018050e+003,8.742914e+001
3.019979e+003,8.741410e+001
3.021907e+003,8.739641e+001
3.023836e+003,8.737672e+001
3.025764e+003,8.735591e+001
3.027693e+003,8.733479e+001
3.029621e+003,8.731384e+001
3.031550e+003,8.729327e+001
3.033478e+003,8.727323e+001
3.035406e+003,8.725410e+001
3.037335e+003,8.723663e+001
3.039263e+003,8.722190e+001
3.041192e+003,8.721116e+001
3.043120e+003,8.720522e+001
3.045049e+003,8.720444e+001
3.046977e+003,8.720857e+001
3.048906e+003,8.721707e+001
3.050834e+003,8.722945e+001
3.052763e+003,8.724556e+001
3.054691e+003,8.726541e+001
3.056620e+003,8.728909e+001
3.058548e+003,8.731621e+001
3.060477e+003,8.734568e+001
3.062405e+003,8.737590e+001
3.064333e+003,8.740472e+001
3.066262e+003,8.743028e+001
3.068190e+003,8.745139e+001
3.070119e+003,8.746748e+001
3.072047e+003,8.747884e+001
3.073976e+003,8.748610e+001
3.075904e+003,8.748996e+001
3.077833e+003,8.749091e+001
3.079761e+003,8.748917e+001
3.081690e+003,8.748494e+001
3.083618e+003,8.747832e+001
3.085547e+003,8.746980e+001
3.087475e+003,8.745985e+001
3.089404e+003,8.744891e+001
3.091332e+003,8.743726e+001
3.093260e+003,8.742476e+001
3.095189e+003,8.741086e+001
3.097117e+003,8.739489e+001
3.099046e+003,8.737622e+001
3.100974e+003,8.735454e+001
3.102903e+003,8.732999e+001
3.104831e+003,8.730309e+001
3.106760e+003,8.727468e+001
3.108688e+003,8.724560e+001
3.110617e+003,8.721635e+001
3.112545e+003,8.718701e+001
3.114474e+003,8.715721e+001
3.116402e+003,8.712618e+001
3.118331e+003,8.709325e+001
3.120259e+003,8.705814e+001
3.122188e+003,8.702129e+001
3.124116e+003,8.698396e+001
3.126044e+003,8.694773e+001
3.127973e+003,8.691423e+001
3.129901e+003,8.688420e+001
3.131830e+003,8.685728e+001
3.133758e+003,8.683179e+001
3.135687e+003,8.680532e+001
3.137615e+003,8.677567e+001
3.139544e+003,8.674143e+001
3.141472e+003,8.670277e+001
3.143401e+003,8.666127e+001
3.145329e+003,8.661950e+001
3.147258e+003,8.657989e+001
3.149186e+003,8.654395e+001
3.151115e+003,8.651170e+001
3.153043e+003,8.648186e+001
3.154971e+003,8.645217e+001
3.156900e+003,8.642023e+001
3.158828e+003,8.638433e+001
3.160757e+003,8.634340e+001
3.162685e+003,8.629709e+001
3.164614e+003,8.624560e+001
3.166542e+003,8.618930e+001
3.168471e+003,8.612871e+001
3.170399e+003,8.606457e+001
3.172328e+003,8.599812e+001
3.174256e+003,8.593065e+001
3.176185e+003,8.586364e+001
3.178113e+003,8.579814e+001
3.180042e+003,8.573419e+001
3.181970e+003,8.567096e+001
3.183898e+003,8.560689e+001
3.185827e+003,8.554053e+001
3.187755e+003,8.547108e+001
3.189684e+003,8.539885e+001
3.191612e+003,8.532520e+001
3.193541e+003,8.525209e+001
3.195469e+003,8.518114e+001
3.197398e+003,8.511309e+001
3.199326e+003,8.504752e+001
3.201255e+003,8.498315e+001
3.203183e+003,8.491831e+001
3.205112e+003,8.485152e+001
3.207040e+003,8.478196e+001
3.208969e+003,8.470940e+001
3.210897e+003,8.463377e+001
3.212825e+003,8.455525e+001
3.214754e+003,8.447378e+001
3.216682e+003,8.438929e+001
3.218611e+003,8.430203e+001
3.220539e+003,8.421276e+001
3.222468e+003,8.412264e+001
3.224396e+003,8.403320e+001
3.226325e+003,8.394576e+001
3.228253e+003,8.386087e+001
3.230182e+003,8.377842e+001
3.232110e+003,8.369724e+001
3.234039e+003,8.361579e+001
3.235967e+003,8.353217e+001
3.237896e+003,8.344458e+001
3.239824e+003,8.335157e+001
3.241752e+003,8.325193e+001
3.243681e+003,8.314502e+001
3.245609e+003,8.303069e+001
3.247538e+003,8.290964e+001
3.249466e+003,8.278333e+001
3.251395e+003,8.265390e+001
3.253323e+003,8.252398e+001
3.255252e+003,8.239600e+001
3.257180e+003,8.227213e+001
3.259109e+003,8.215392e+001
3.261037e+003,8.204247e+001
3.262966e+003,8.193870e+001
3.264894e+003,8.184355e+001
3.266823e+003,8.175817e+001
3.268751e+003,8.168362e+001
3.270679e+003,8.162048e+001
3.272608e+003,8.156868e+001
3.274536e+003,8.152733e+001
3.276465e+003,8.149504e+001
3.278393e+003,8.147037e+001
3.280322e+003,8.145206e+001
3.282250e+003,8.143929e+001
3.284179e+003,8.143139e+001
3.286107e+003,8.142768e+001
3.288036e+003,8.142725e+001
3.289964e+003,8.142902e+001
3.291893e+003,8.143225e+001
3.293821e+003,8.143680e+001
3.295750e+003,8.144319e+001
3.297678e+003,8.145238e+001
3.299606e+003,8.146490e+001
3.301535e+003,8.148026e+001
3.303463e+003,8.149657e+001
3.305392e+003,8.151064e+001
3.307320e+003,8.151868e+001
3.309249e+003,8.151763e+001
3.311177e+003,8.150517e+001
3.313106e+003,8.148051e+001
3.315034e+003,8.144377e+001
3.316963e+003,8.139557e+001
3.318891e+003,8.133669e+001
3.320820e+003,8.126822e+001
3.322748e+003,8.119225e+001
3.324677e+003,8.111250e+001
3.326605e+003,8.103458e+001
3.328533e+003,8.096625e+001
3.330462e+003,8.091537e+001
3.332390e+003,8.088942e+001
3.334319e+003,8.089391e+001
3.336247e+003,8.093136e+001
3.338176e+003,8.100179e+001
3.340104e+003,8.110310e+001
3.342033e+003,8.123192e+001
3.343961e+003,8.138381e+001
3.345890e+003,8.155367e+001
3.347818e+003,8.173566e+001
3.349747e+003,8.192312e+001
3.351675e+003,8.210976e+001
3.353604e+003,8.229038e+001
3.355532e+003,8.246170e+001
3.357460e+003,8.262305e+001
3.359389e+003,8.277601e+001
3.361317e+003,8.292349e+001
3.363246e+003,8.306833e+001
3.365174e+003,8.321272e+001
3.367103e+003,8.335758e+001
3.369031e+003,8.350284e+001
3.370959e+003,8.364790e+001
3.372888e+003,8.379197e+001
3.374816e+003,8.393439e+001
3.376745e+003,8.407404e+001
3.378673e+003,8.420941e+001
3.380602e+003,8.433856e+001
3.382530e+003,8.445970e+001
3.384459e+003,8.457191e+001
3.386387e+003,8.467570e+001
3.388316e+003,8.477336e+001
3.390244e+003,8.486802e+001
3.392173e+003,8.496320e+001
3.394101e+003,8.506169e+001
3.396030e+003,8.516506e+001
3.397958e+003,8.527408e+001
3.399886e+003,8.538907e+001
3.401815e+003,8.551056e+001
3.403743e+003,8.563960e+001
3.405672e+003,8.577723e+001
3.407600e+003,8.592392e+001
3.409529e+003,8.607885e+001
3.411457e+003,8.624039e+001
3.413386e+003,8.640611e+001
3.415314e+003,8.657419e+001
3.417243e+003,8.674410e+001
3.419171e+003,8.691656e+001
3.421100e+003,8.709290e+001
3.423028e+003,8.727383e+001
3.424957e+003,8.745851e+001
3.426885e+003,8.764427e+001
3.428813e+003,8.782738e+001
3.430742e+003,8.800414e+001
3.432670e+003,8.817239e+001
3.434599e+003,8.833199e+001
3.436527e+003,8.848484e+001
3.438456e+003,8.863358e+001
3.440384e+003,8.878098e+001
3.442313e+003,8.892882e+001
3.444241e+003,8.907761e+001
3.446170e+003,8.922722e+001
3.448098e+003,8.937717e+001
3.450027e+003,8.952742e+001
3.451955e+003,8.967802e+001
3.453884e+003,8.982922e+001
3.455812e+003,8.998104e+001
3.457740e+003,9.013319e+001
3.459669e+003,9.028543e+001
3.461597e+003,9.043760e+001
3.463526e+003,9.058987e+001
3.465454e+003,9.074240e+001
3.467383e+003,9.089485e+001
3.469311e+003,9.104585e+001
3.471240e+003,9.119357e+001
3.473168e+003,9.133582e+001
3.475097e+003,9.147147e+001
3.477025e+003,9.160127e+001
3.478954e+003,9.172787e+001
3.480882e+003,9.185478e+001
3.482811e+003,9.198518e+001
3.484739e+003,9.212010e+001
3.486667e+003,9.225793e+001
3.488596e+003,9.239481e+001
3.490524e+003,9.252630e+001
3.492453e+003,9.264956e+001
3.494381e+003,9.276468e+001
3.496310e+003,9.287502e+001
3.498238e+003,9.298586e+001
3.500167e+003,9.310315e+001
3.502095e+003,9.323078e+001
3.504024e+003,9.336935e+001
3.505952e+003,9.351632e+001
3.507881e+003,9.366712e+001
3.509809e+003,9.381647e+001
3.511738e+003,9.395979e+001
3.513666e+003,9.409412e+001
3.515594e+003,9.421775e+001
3.517523e+003,9.433023e+001
3.519451e+003,9.443222e+001
3.521380e+003,9.452553e+001
3.523308e+003,9.461304e+001
3.525237e+003,9.469838e+001
3.527165e+003,9.478565e+001
3.529094e+003,9.487804e+001
3.531022e+003,9.497729e+001
3.532951e+003,9.508341e+001
3.534879e+003,9.519514e+001
3.536808e+003,9.531068e+001
3.538736e+003,9.542832e+001
3.540665e+003,9.554716e+001
3.542593e+003,9.566668e+001
3.544521e+003,9.578641e+001
3.546450e+003,9.590538e+001
3.548378e+003,9.602213e+001
3.550307e+003,9.613528e+001
3.552235e+003,9.624419e+001
3.554164e+003,9.634959e+001
3.556092e+003,9.645361e+001
3.558021e+003,9.655901e+001
3.559949e+003,9.666817e+001
3.561878e+003,9.678185e+001
3.563806e+003,9.689842e+001
3.565735e+003,9.701456e+001
3.567663e+003,9.712694e+001
3.569592e+003,9.723365e+001
3.571520e+003,9.733525e+001
3.573448e+003,9.743391e+001
3.575377e+003,9.753252e+001
3.577305e+003,9.763305e+001
3.579234e+003,9.773601e+001
3.581162e+003,9.784013e+001
3.583091e+003,9.794324e+001
3.585019e+003,9.804367e+001
3.586948e+003,9.814114e+001
3.588876e+003,9.823697e+001
3.590805e+003,9.833379e+001
3.592733e+003,9.843414e+001
3.594662e+003,9.853917e+001
3.596590e+003,9.864898e+001
3.598519e+003,9.876284e+001
3.600447e+003,9.888002e+001
3.602375e+003,9.900030e+001
3.604304e+003,9.912389e+001
3.606232e+003,9.925072e+001
3.608161e+003,9.937985e+001
3.610089e+003,9.950901e+001
3.612018e+003,9.963519e+001
3.613946e+003,9.975595e+001
3.615875e+003,9.987065e+001
3.617803e+003,9.998090e+001
3.619732e+003,1.000898e+002
3.621660e+003,1.002002e+002
3.623589e+003,1.003137e+002
3.625517e+003,1.004287e+002
3.627446e+003,1.005418e+002
3.629374e+003,1.006487e+002
3.631302e+003,1.007466e+002
3.633231e+003,1.008357e+002
3.635159e+003,1.009189e+002
3.637088e+003,1.010009e+002
3.639016e+003,1.010870e+002
3.640945e+003,1.011819e+002
3.642873e+003,1.012886e+002
3.644802e+003,1.014070e+002
3.646730e+003,1.015330e+002
3.648659e+003,1.016597e+002
3.650587e+003,1.017792e+002
3.652516e+003,1.018864e+002
3.654444e+003,1.019799e+002
3.656373e+003,1.020616e+002
3.658301e+003,1.021344e+002
3.660229e+003,1.022019e+002
3.662158e+003,1.022670e+002
3.664086e+003,1.023326e+002
3.666015e+003,1.024004e+002
3.667943e+003,1.024713e+002
3.669872e+003,1.025443e+002
3.671800e+003,1.026169e+002
3.673729e+003,1.026856e+002
3.675657e+003,1.027480e+002
3.677586e+003,1.028027e+002
3.679514e+003,1.028498e+002
3.681443e+003,1.028901e+002
3.683371e+003,1.029249e+002
3.685300e+003,1.029555e+002
3.687228e+003,1.029832e+002
3.689156e+003,1.030096e+002
3.691085e+003,1.030356e+002
3.693013e+003,1.030619e+002
3.694942e+003,1.030883e+002
3.696870e+003,1.031139e+002
3.698799e+003,1.031373e+002
3.700727e+003,1.031570e+002
3.702656e+003,1.031721e+002
3.704584e+003,1.031823e+002
3.706513e+003,1.031889e+002
3.708441e+003,1.031938e+002
3.710370e+003,1.031992e+002
3.712298e+003,1.032063e+002
3.714227e+003,1.032149e+002
3.716155e+003,1.032241e+002
3.718083e+003,1.032323e+002
3.720012e+003,1.032386e+002
3.721940e+003,1.032433e+002
3.723869e+003,1.032473e+002
3.725797e+003,1.032526e+002
3.727726e+003,1.032609e+002
3.729654e+003,1.032727e+002
3.731583e+003,1.032872e+002
3.733511e+003,1.033024e+002
3.735440e+003,1.033158e+002
3.737368e+003,1.033251e+002
3.739297e+003,1.033294e+002
3.741225e+003,1.033292e+002
3.743154e+003,1.033259e+002
3.745082e+003,1.033216e+002
3.747010e+003,1.033183e+002
3.748939e+003,1.033179e+002
3.750867e+003,1.033211e+002
3.752796e+003,1.033281e+002
3.754724e+003,1.033386e+002
3.756653e+003,1.033516e+002
3.758581e+003,1.033662e+002
3.760510e+003,1.033811e+002
3.762438e+003,1.033955e+002
3.764367e+003,1.034090e+002
3.766295e+003,1.034216e+002
3.768224e+003,1.034339e+002
3.770152e+003,1.034462e+002
3.772081e+003,1.034584e+002
3.774009e+003,1.034695e+002
3.775938e+003,1.034777e+002
3.777866e+003,1.034810e+002
3.779794e+003,1.034780e+002
3.781723e+003,1.034688e+002
3.783651e+003,1.034549e+002
3.785580e+003,1.034392e+002
3.787508e+003,1.034250e+002
3.789437e+003,1.034145e+002
3.791365e+003,1.034092e+002
3.793294e+003,1.034088e+002
3.795222e+003,1.034117e+002
3.797151e+003,1.034159e+002
3.799079e+003,1.034192e+002
3.801008e+003,1.034207e+002
3.802936e+003,1.034205e+002
3.804865e+003,1.034200e+002
3.806793e+003,1.034204e+002
3.808721e+003,1.034231e+002
3.810650e+003,1.034284e+002
3.812578e+003,1.034364e+002
3.814507e+003,1.034462e+002
3.816435e+003,1.034566e+002
3.818364e+003,1.034658e+002
3.820292e+003,1.034718e+002
3.822221e+003,1.034731e+002
3.824149e+003,1.034689e+002
3.826078e+003,1.034592e+002
3.828006e+003,1.034448e+002
3.829935e+003,1.034277e+002
3.831863e+003,1.034104e+002
3.833792e+003,1.033962e+002
3.835720e+003,1.033881e+002
3.837648e+003,1.033875e+002
3.839577e+003,1.033948e+002
3.841505e+003,1.034090e+002
3.843434e+003,1.034286e+002
3.845362e+003,1.034516e+002
3.847291e+003,1.034756e+002
3.849219e+003,1.034977e+002
3.851148e+003,1.035140e+002
3.853076e+003,1.035218e+002
3.855005e+003,1.035198e+002
3.856933e+003,1.035093e+002
3.858862e+003,1.034936e+002
3.860790e+003,1.034775e+002
3.862719e+003,1.034654e+002
3.864647e+003,1.034606e+002
3.866575e+003,1.034639e+002
3.868504e+003,1.034733e+002
3.870432e+003,1.034850e+002
3.872361e+003,1.034944e+002
3.874289e+003,1.034984e+002
3.876218e+003,1.034962e+002
3.878146e+003,1.034890e+002
3.880075e+003,1.034796e+002
3.882003e+003,1.034713e+002
3.883932e+003,1.034664e+002
3.885860e+003,1.034652e+002
3.887789e+003,1.034667e+002
3.889717e+003,1.034692e+002
3.891646e+003,1.034712e+002
3.893574e+003,1.034721e+002
3.895502e+003,1.034727e+002
3.897431e+003,1.034749e+002
3.899359e+003,1.034803e+002
3.901288e+003,1.034895e+002
3.903216e+003,1.035016e+002
3.905145e+003,1.035144e+002
3.907073e+003,1.035254e+002
3.909002e+003,1.035327e+002
3.910930e+003,1.035354e+002
3.912859e+003,1.035339e+002
3.914787e+003,1.035298e+002
3.916716e+003,1.035255e+002
3.918644e+003,1.035234e+002
3.920573e+003,1.035253e+002
3.922501e+003,1.035318e+002
3.924429e+003,1.035415e+002
3.926358e+003,1.035519e+002
3.928286e+003,1.035599e+002
3.930215e+003,1.035630e+002
3.932143e+003,1.035594e+002
3.934072e+003,1.035496e+002
3.936000e+003,1.035354e+002
3.937929e+003,1.035200e+002
3.939857e+003,1.035063e+002
3.941786e+003,1.034969e+002
3.943714e+003,1.034927e+002
3.945643e+003,1.034930e+002
3.947571e+003,1.034962e+002
3.949500e+003,1.035000e+002
3.951428e+003,1.035031e+002
3.953356e+003,1.035052e+002
3.955285e+003,1.035071e+002
3.957213e+003,1.035103e+002
3.959142e+003,1.035161e+002
3.961070e+003,1.035248e+002
3.962999e+003,1.035357e+002
3.964927e+003,1.035469e+002
3.966856e+003,1.035565e+002
3.968784e+003,1.035630e+002
3.970713e+003,1.035659e+002
3.972641e+003,1.035660e+002
3.974570e+003,1.035649e+002
3.976498e+003,1.035644e+002
3.978427e+003,1.035656e+002
3.980355e+003,1.035689e+002
3.982283e+003,1.035736e+002
3.984212e+003,1.035780e+002
3.986140e+003,1.035804e+002
3.988069e+003,1.035795e+002
3.989997e+003,1.035743e+002
3.991926e+003,1.035648e+002
3.993854e+003,1.035515e+002
3.995783e+003,1.035357e+002
3.997711e+003,1.035191e+002
3.999640e+003,1.035035e+002
4.001568e+003,0.000000e+000
