3.991926e+002,8.894128e+001
4.011211e+002,8.875849e+001
4.030496e+002,8.863157e+001
4.049780e+002,8.852941e+001
4.069065e+002,8.841885e+001
4.088350e+002,8.827641e+001
4.107634e+002,8.809696e+001
4.126919e+002,8.789191e+001
4.146204e+002,8.768497e+001
4.165488e+002,8.750035e+001
4.184773e+002,8.735235e+001
4.204058e+002,8.723895e+001
4.223342e+002,8.714507e+001
4.242627e+002,8.705204e+001
4.261912e+002,8.694838e+001
4.281196e+002,8.683440e+001
4.300481e+002,8.672041e+001
4.319766e+002,8.662185e+001
4.339050e+002,8.655270e+001
4.358335e+002,8.652323e+001
4.377620e+002,8.653607e+001
4.396904e+002,8.658705e+001
4.416189e+002,8.666695e+001
4.435474e+002,8.676541e+001
4.454758e+002,8.687320e+001
4.474043e+002,8.698330e+001
4.493328e+002,8.709200e+001
4.512612e+002,8.719764e+001
4.531897e+002,8.730029e+001
4.551182e+002,8.740063e+001
4.570466e+002,8.749894e+001
4.589751e+002,8.759343e+001
4.609036e+002,8.767946e+001
4.628320e+002,8.774877e+001
4.647605e+002,8.779147e+001
4.666890e+002,8.779864e+001
4.686174e+002,8.776443e+001
4.705459e+002,8.768904e+001
4.724744e+002,8.757847e+001
4.744028e+002,8.744292e+001
4.763313e+002,8.729265e+001
4.782598e+002,8.713548e+001
4.801882e+002,8.697475e+001
4.821167e+002,8.680998e+001
4.840452e+002,8.663889e+001
4.859736e+002,8.646025e+001
4.879021e+002,8.627544e+001
4.898306e+002,8.608864e+001
4.917590e+002,8.590514e+001
4.936875e+002,8.572910e+001
4.956160e+002,8.556231e+001
4.975444e+002,8.540352e+001
4.994729e+002,8.524973e+001
5.014014e+002,8.509778e+001
5.033298e+002,8.494630e+001
5.052583e+002,8.479619e+001
5.071868e+002,8.465042e+001
5.091152e+002,8.451286e+001
5.110437e+002,8.438763e+001
5.129722e+002,8.427857e+001
5.149006e+002,8.418882e+001
5.168291e+002,8.412164e+001
5.187576e+002,8.407921e+001
5.206860e+002,8.406212e+001
5.226145e+002,8.406769e+001
5.245430e+002,8.408973e+001
5.264714e+002,8.411830e+001
5.283999e+002,8.414107e+001
5.303284e+002,8.414636e+001
5.322568e+002,8.412354e+001
5.341853e+002,8.406469e+001
5.361138e+002,8.396499e+001
5.380422e+002,8.382161e+001
5.399707e+002,8.363415e+001
5.418992e+002,8.340485e+001
5.438276e+002,8.314039e+001
5.457561e+002,8.285300e+001
5.476846e+002,8.256168e+001
5.496130e+002,8.229313e+001
5.515415e+002,8.207623e+001
5.534700e+002,8.193993e+001
5.553984e+002,8.190730e+001
5.573269e+002,8.198865e+001
5.592554e+002,8.218075e+001
5.611838e+002,8.246539e+001
5.631123e+002,8.281446e+001
5.650408e+002,8.319167e+001
5.669692e+002,8.356104e+001
5.688977e+002,8.389330e+001
5.708262e+002,8.416750e+001
5.727546e+002,8.437566e+001
5.746831e+002,8.452054e+001
5.766116e+002,8.461311e+001
5.785400e+002,8.466686e+001
5.804685e+002,8.469516e+001
5.823970e+002,8.470818e+001
5.843254e+002,8.471212e+001
5.862539e+002,8.471085e+001
5.881824e+002,8.470734e+001
5.901108e+002,8.470452e+001
5.920393e+002,8.470564e+001
5.939678e+002,8.471323e+001
5.958962e+002,8.472765e+001
5.978247e+002,8.474683e+001
5.997532e+002,8.476717e+001
6.016816e+002,8.478550e+001
6.036101e+002,8.480182e+001
6.055386e+002,8.482081e+001
6.074670e+002,8.485220e+001
6.093955e+002,8.490885e+001
6.113240e+002,8.500193e+001
6.132524e+002,8.513860e+001
6.151809e+002,8.531866e+001
6.171094e+002,8.553482e+001
6.190378e+002,8.577452e+001
6.209663e+002,8.602427e+001
6.228948e+002,8.627312e+001
6.248232e+002,8.651398e+001
6.267517e+002,8.674438e+001
6.286802e+002,8.696445e+001
6.306086e+002,8.717513e+001
6.325371e+002,8.737656e+001
6.344656e+002,8.756761e+001
6.363940e+002,8.774593e+001
6.383225e+002,8.790865e+001
6.402510e+002,8.805178e+001
6.421794e+002,8.817017e+001
6.441079e+002,8.825742e+001
6.460364e+002,8.830570e+001
6.479648e+002,8.830837e+001
6.498933e+002,8.826289e+001
6.518218e+002,8.817348e+001
6.537502e+002,8.805219e+001
6.556787e+002,8.791867e+001
6.576072e+002,8.779866e+001
6.595356e+002,8.771803e+001
6.614641e+002,8.770211e+001
6.633926e+002,8.777031e+001
6.653210e+002,8.793146e+001
6.672495e+002,8.818173e+001
6.691780e+002,8.850407e+001
6.711064e+002,8.887331e+001
6.730349e+002,8.926072e+001
6.749634e+002,8.964182e+001
6.768918e+002,8.999854e+001
6.788203e+002,9.031785e+001
6.807488e+002,9.059196e+001
6.826772e+002,9.081627e+001
6.846057e+002,9.098972e+001
6.865342e+002,9.111570e+001
6.884626e+002,9.120232e+001
6.903911e+002,9.126135e+001
6.923196e+002,9.130499e+001
6.942480e+002,9.134481e+001
6.961765e+002,9.138907e+001
6.981050e+002,9.144270e+001
7.000334e+002,9.150883e+001
7.019619e+002,9.159005e+001
7.038904e+002,9.168980e+001
7.058188e+002,9.181328e+001
7.077473e+002,9.196627e+001
7.096758e+002,9.215440e+001
7.116042e+002,9.238148e+001
7.135327e+002,9.264796e+001
7.154612e+002,9.295024e+001
7.173896e+002,9.328086e+001
7.193181e+002,9.363000e+001
7.212466e+002,9.398606e+001
7.231750e+002,9.433826e+001
7.251035e+002,9.467772e+001
7.270320e+002,9.499747e+001
7.289604e+002,9.529305e+001
7.308889e+002,9.556181e+001
7.328174e+002,9.580267e+001
7.347458e+002,9.601595e+001
7.366743e+002,9.620319e+001
7.386028e+002,9.636727e+001
7.405313e+002,9.651166e+001
7.424597e+002,9.664060e+001
7.443882e+002,9.675848e+001
7.463167e+002,9.686922e+001
7.482451e+002,9.697651e+001
7.501736e+002,9.708306e+001
7.521021e+002,9.719041e+001
7.540305e+002,9.729898e+001
7.559590e+002,9.740796e+001
7.578875e+002,9.751553e+001
7.598159e+002,9.761937e+001
7.617444e+002,9.771728e+001
7.636729e+002,9.780762e+001
7.656013e+002,9.788960e+001
7.675298e+002,9.796329e+001
7.694582e+002,9.802943e+001
7.713867e+002,9.808904e+001
7.733151e+002,9.814299e+001
7.752436e+002,9.819204e+001
7.771721e+002,9.823675e+001
7.791005e+002,9.827753e+001
7.810290e+002,9.831490e+001
7.829575e+002,9.834946e+001
7.848859e+002,9.838204e+001
7.868144e+002,9.841354e+001
7.887429e+002,9.844498e+001
7.906713e+002,9.847754e+001
7.925998e+002,9.851243e+001
7.945283e+002,9.855063e+001
7.964567e+002,9.859274e+001
7.983852e+002,9.863867e+001
8.003137e+002,9.868743e+001
8.022421e+002,9.873741e+001
8.041706e+002,9.878682e+001
8.060991e+002,9.883427e+001
8.080275e+002,9.887924e+001
8.099560e+002,9.892200e+001
8.118845e+002,9.896355e+001
8.138129e+002,9.900465e+001
8.157414e+002,9.904535e+001
8.176699e+002,9.908446e+001
8.195983e+002,9.911975e+001
8.215268e+002,9.914864e+001
8.234553e+002,9.916882e+001
8.253837e+002,9.917941e+001
8.273122e+002,9.918115e+001
8.292407e+002,9.917661e+001
8.311691e+002,9.916932e+001
8.330976e+002,9.916291e+001
8.350261e+002,9.916048e+001
8.369545e+002,9.916368e+001
8.388830e+002,9.917256e+001
8.408115e+002,9.918581e+001
8.427399e+002,9.920140e+001
8.446684e+002,9.921707e+001
8.465969e+002,9.923102e+001
8.485253e+002,9.924220e+001
8.504538e+002,9.925015e+001
8.523823e+002,9.925459e+001
8.543107e+002,9.925478e+001
8.562392e+002,9.924892e+001
8.581677e+002,9.923428e+001
8.600961e+002,9.920723e+001
8.620246e+002,9.916402e+001
8.639531e+002,9.910189e+001
8.658815e+002,9.901960e+001
8.678100e+002,9.891764e+001
8.697385e+002,9.879778e+001
8.716669e+002,9.866222e+001
8.735954e+002,9.851271e+001
8.755239e+002,9.834981e+001
8.774523e+002,9.817316e+001
8.793808e+002,9.798231e+001
8.813093e+002,9.777810e+001
8.832377e+002,9.756395e+001
8.851662e+002,9.734621e+001
8.870947e+002,9.713398e+001
8.890231e+002,9.693842e+001
8.909516e+002,9.676997e+001
8.928801e+002,9.663770e+001
8.948085e+002,9.654769e+001
8.967370e+002,9.650196e+001
8.986655e+002,9.649864e+001
9.005939e+002,9.653207e+001
9.025224e+002,9.659401e+001
9.044509e+002,9.667377e+001
9.063793e+002,9.676031e+001
9.083078e+002,9.684363e+001
9.102363e+002,9.691502e+001
9.121647e+002,9.696851e+001
9.140932e+002,9.700059e+001
9.160217e+002,9.700965e+001
9.179501e+002,9.699553e+001
9.198786e+002,9.695872e+001
9.218071e+002,9.690018e+001
9.237355e+002,9.682107e+001
9.256640e+002,9.672314e+001
9.275925e+002,9.660839e+001
9.295209e+002,9.647874e+001
9.314494e+002,9.633537e+001
9.333779e+002,9.617787e+001
9.353063e+002,9.600391e+001
9.372348e+002,9.580923e+001
9.391633e+002,9.558917e+001
9.410917e+002,9.533962e+001
9.430202e+002,9.505834e+001
9.449487e+002,9.474557e+001
9.468771e+002,9.440353e+001
9.488056e+002,9.403535e+001
9.507341e+002,9.364365e+001
9.526625e+002,9.322977e+001
9.545910e+002,9.279318e+001
9.565195e+002,9.233167e+001
9.584479e+002,9.184143e+001
9.603764e+002,9.131725e+001
9.623049e+002,9.075253e+001
9.642333e+002,9.013899e+001
9.661618e+002,8.946883e+001
9.680903e+002,8.873674e+001
9.700187e+002,8.794395e+001
9.719472e+002,8.710098e+001
9.738757e+002,8.623064e+001
9.758041e+002,8.536643e+001
9.777326e+002,8.454458e+001
9.796611e+002,8.380103e+001
9.815895e+002,8.316022e+001
9.835180e+002,8.263025e+001
9.854465e+002,8.220280e+001
9.873749e+002,8.185753e+001
9.893034e+002,8.156960e+001
9.912319e+002,8.131667e+001
9.931603e+002,8.108630e+001
9.950888e+002,8.087636e+001
9.970173e+002,8.069262e+001
9.989457e+002,8.054295e+001
1.000874e+003,8.043196e+001
1.002803e+003,8.035686e+001
1.004731e+003,8.030713e+001
1.006660e+003,8.026534e+001
1.008588e+003,8.021175e+001
1.010517e+003,8.012883e+001
1.012445e+003,8.000288e+001
1.014373e+003,7.982763e+001
1.016302e+003,7.960480e+001
1.018230e+003,7.934516e+001
1.020159e+003,7.906716e+001
1.022087e+003,7.879745e+001
1.024016e+003,7.856831e+001
1.025944e+003,7.841036e+001
1.027873e+003,7.834964e+001
1.029801e+003,7.839883e+001
1.031730e+003,7.855288e+001
1.033658e+003,7.878662e+001
1.035587e+003,7.905910e+001
1.037515e+003,7.932230e+001
1.039444e+003,7.952768e+001
1.041372e+003,7.964214e+001
1.043301e+003,7.965433e+001
1.045229e+003,7.957980e+001
1.047157e+003,7.945703e+001
1.049086e+003,7.934369e+001
1.051014e+003,7.930569e+001
1.052943e+003,7.940036e+001
1.054871e+003,7.967258e+001
1.056800e+003,8.014313e+001
1.058728e+003,8.080690e+001
1.060657e+003,8.163354e+001
1.062585e+003,8.257505e+001
1.064514e+003,8.357507e+001
1.066442e+003,8.457354e+001
1.068371e+003,8.552139e+001
1.070299e+003,8.638261e+001
1.072228e+003,8.713634e+001
1.074156e+003,8.777678e+001
1.076084e+003,8.830724e+001
1.078013e+003,8.873483e+001
1.079941e+003,8.906525e+001
1.081870e+003,8.930070e+001
1.083798e+003,8.944028e+001
1.085727e+003,8.948246e+001
1.087655e+003,8.942862e+001
1.089584e+003,8.928580e+001
1.091512e+003,8.906744e+001
1.093441e+003,8.879436e+001
1.095369e+003,8.849090e+001
1.097298e+003,8.818506e+001
1.099226e+003,8.790756e+001
1.101155e+003,8.768780e+001
1.103083e+003,8.755595e+001
1.105011e+003,8.753971e+001
1.106940e+003,8.765950e+001
1.108868e+003,8.792812e+001
1.110797e+003,8.834563e+001
1.112725e+003,8.889905e+001
1.114654e+003,8.956229e+001
1.116582e+003,9.030169e+001
1.118511e+003,9.108096e+001
1.120439e+003,9.186452e+001
1.122368e+003,9.262483e+001
1.124296e+003,9.334074e+001
1.126225e+003,9.399647e+001
1.128153e+003,9.458067e+001
1.130082e+003,9.508222e+001
1.132010e+003,9.549045e+001
1.133938e+003,9.579651e+001
1.135867e+003,9.599438e+001
1.137795e+003,9.608360e+001
1.139724e+003,9.606999e+001
1.141652e+003,9.596555e+001
1.143581e+003,9.578618e+001
1.145509e+003,9.555045e+001
1.147438e+003,9.527962e+001
1.149366e+003,9.499565e+001
1.151295e+003,9.472427e+001
1.153223e+003,9.449576e+001
1.155151e+003,9.434140e+001
1.157080e+003,9.429463e+001
1.159008e+003,9.438391e+001
1.160937e+003,9.462589e+001
1.162865e+003,9.502233e+001
1.164794e+003,9.555663e+001
1.166722e+003,9.619689e+001
1.168651e+003,9.689777e+001
1.170579e+003,9.761226e+001
1.172508e+003,9.829668e+001
1.174436e+003,9.891508e+001
1.176365e+003,9.944554e+001
1.178293e+003,9.987733e+001
1.180222e+003,1.002097e+002
1.182150e+003,1.004482e+002
1.184078e+003,1.006017e+002
1.186007e+003,1.006804e+002
1.187935e+003,1.006943e+002
1.189864e+003,1.006554e+002
1.191792e+003,1.005774e+002
1.193721e+003,1.004760e+002
1.195649e+003,1.003705e+002
1.197578e+003,1.002796e+002
1.199506e+003,1.002205e+002
1.201435e+003,1.002063e+002
1.203363e+003,1.002428e+002
1.205292e+003,1.003278e+002
1.207220e+003,1.004506e+002
1.209149e+003,1.005948e+002
1.211077e+003,1.007393e+002
1.213005e+003,1.008624e+002
1.214934e+003,1.009464e+002
1.216862e+003,1.009787e+002
1.218791e+003,1.009545e+002
1.220719e+003,1.008766e+002
1.222648e+003,1.007547e+002
1.224576e+003,1.006024e+002
1.226505e+003,1.004347e+002
1.228433e+003,1.002661e+002
1.230362e+003,1.001075e+002
1.232290e+003,9.996600e+001
1.234219e+003,9.984515e+001
1.236147e+003,9.974533e+001
1.238076e+003,9.966512e+001
1.240004e+003,9.960225e+001
1.241932e+003,9.955433e+001
1.243861e+003,9.951907e+001
1.245789e+003,9.949454e+001
1.247718e+003,9.947898e+001
1.249646e+003,9.947073e+001
1.251575e+003,9.946819e+001
1.253503e+003,9.946937e+001
1.255432e+003,9.947163e+001
1.257360e+003,9.947163e+001
1.259289e+003,9.946479e+001
1.261217e+003,9.944593e+001
1.263146e+003,9.941051e+001
1.265074e+003,9.935532e+001
1.267003e+003,9.928029e+001
1.268931e+003,9.918875e+001
1.270859e+003,9.908790e+001
1.272788e+003,9.898715e+001
1.274716e+003,9.889669e+001
1.276645e+003,9.882608e+001
1.278573e+003,9.878126e+001
1.280502e+003,9.876361e+001
1.282430e+003,9.876901e+001
1.284359e+003,9.878874e+001
1.286287e+003,9.880990e+001
1.288216e+003,9.881770e+001
1.290144e+003,9.879832e+001
1.292073e+003,9.873885e+001
1.294001e+003,9.862959e+001
1.295930e+003,9.846447e+001
1.297858e+003,9.824145e+001
1.299786e+003,9.796331e+001
1.301715e+003,9.763857e+001
1.303643e+003,9.728299e+001
1.305572e+003,9.691769e+001
1.307500e+003,9.656982e+001
1.309429e+003,9.626936e+001
1.311357e+003,9.604179e+001
1.313286e+003,9.590585e+001
1.315214e+003,9.586644e+001
1.317143e+003,9.591364e+001
1.319071e+003,9.602289e+001
1.321000e+003,9.616186e+001
1.322928e+003,9.629905e+001
1.324857e+003,9.640884e+001
1.326785e+003,9.647942e+001
1.328714e+003,9.651289e+001
1.330642e+003,9.652393e+001
1.332570e+003,9.653314e+001
1.334499e+003,9.656248e+001
1.336427e+003,9.662777e+001
1.338356e+003,9.673340e+001
1.340284e+003,9.687162e+001
1.342213e+003,9.702517e+001
1.344141e+003,9.717408e+001
1.346070e+003,9.729961e+001
1.347998e+003,9.739021e+001
1.349927e+003,9.744223e+001
1.351855e+003,9.745924e+001
1.353784e+003,9.744963e+001
1.355712e+003,9.742493e+001
1.357641e+003,9.739810e+001
1.359569e+003,9.738070e+001
1.361497e+003,9.738305e+001
1.363426e+003,9.741344e+001
1.365354e+003,9.747749e+001
1.367283e+003,9.757896e+001
1.369211e+003,9.771925e+001
1.371140e+003,9.789711e+001
1.373068e+003,9.810812e+001
1.374997e+003,9.834492e+001
1.376925e+003,9.859776e+001
1.378854e+003,9.885492e+001
1.380782e+003,9.910531e+001
1.382711e+003,9.933893e+001
1.384639e+003,9.954749e+001
1.386568e+003,9.972561e+001
1.388496e+003,9.986993e+001
1.390424e+003,9.997917e+001
1.392353e+003,1.000537e+002
1.394281e+003,1.000959e+002
1.396210e+003,1.001090e+002
1.398138e+003,1.000974e+002
1.400067e+003,1.000656e+002
1.401995e+003,1.000176e+002
1.403924e+003,9.995593e+001
1.405852e+003,9.988116e+001
1.407781e+003,9.979185e+001
1.409709e+003,9.968489e+001
1.411638e+003,9.955674e+001
1.413566e+003,9.940536e+001
1.415495e+003,9.923288e+001
1.417423e+003,9.904762e+001
1.419351e+003,9.886345e+001
1.421280e+003,9.869864e+001
1.423208e+003,9.857047e+001
1.425137e+003,9.849136e+001
1.427065e+003,9.846802e+001
1.428994e+003,9.850061e+001
1.430922e+003,9.858362e+001
1.432851e+003,9.870564e+001
1.434779e+003,9.885158e+001
1.436708e+003,9.900357e+001
1.438636e+003,9.914483e+001
1.440565e+003,9.926436e+001
1.442493e+003,9.935748e+001
1.444422e+003,9.942618e+001
1.446350e+003,9.947691e+001
1.448278e+003,9.951926e+001
1.450207e+003,9.956406e+001
1.452135e+003,9.962157e+001
1.454064e+003,9.970003e+001
1.455992e+003,9.980252e+001
1.457921e+003,9.992641e+001
1.459849e+003,1.000651e+002
1.461778e+003,1.002114e+002
1.463706e+003,1.003601e+002
1.465635e+003,1.005087e+002
1.467563e+003,1.006562e+002
1.469492e+003,1.008017e+002
1.471420e+003,1.009431e+002
1.473349e+003,1.010781e+002
1.475277e+003,1.012048e+002
1.477205e+003,1.013234e+002
1.479134e+003,1.014363e+002
1.481062e+003,1.015473e+002
1.482991e+003,1.016600e+002
1.484919e+003,1.017764e+002
1.486848e+003,1.018947e+002
1.488776e+003,1.020106e+002
1.490705e+003,1.021171e+002
1.492633e+003,1.022079e+002
1.494562e+003,1.022796e+002
1.496490e+003,1.023326e+002
1.498419e+003,1.023705e+002
1.500347e+003,1.023981e+002
1.502276e+003,1.024196e+002
1.504204e+003,1.024372e+002
1.506132e+003,1.024512e+002
1.508061e+003,1.024598e+002
1.509989e+003,1.024614e+002
1.511918e+003,1.024550e+002
1.513846e+003,1.024411e+002
1.515775e+003,1.024209e+002
1.517703e+003,1.023964e+002
1.519632e+003,1.023695e+002
1.521560e+003,1.023413e+002
1.523489e+003,1.023127e+002
1.525417e+003,1.022834e+002
1.527346e+003,1.022533e+002
1.529274e+003,1.022219e+002
1.531203e+003,1.021898e+002
1.533131e+003,1.021586e+002
1.535059e+003,1.021318e+002
1.536988e+003,1.021139e+002
1.538916e+003,1.021083e+002
1.540845e+003,1.021157e+002
1.542773e+003,1.021322e+002
1.544702e+003,1.021516e+002
1.546630e+003,1.021684e+002
1.548559e+003,1.021796e+002
1.550487e+003,1.021840e+002
1.552416e+003,1.021824e+002
1.554344e+003,1.021759e+002
1.556273e+003,1.021658e+002
1.558201e+003,1.021531e+002
1.560130e+003,1.021380e+002
1.562058e+003,1.021203e+002
1.563986e+003,1.020995e+002
1.565915e+003,1.020760e+002
1.567843e+003,1.020510e+002
1.569772e+003,1.020266e+002
1.571700e+003,1.020054e+002
1.573629e+003,1.019897e+002
1.575557e+003,1.019807e+002
1.577486e+003,1.019777e+002
1.579414e+003,1.019786e+002
1.581343e+003,1.019809e+002
1.583271e+003,1.019823e+002
1.585200e+003,1.019813e+002
1.587128e+003,1.019770e+002
1.589057e+003,1.019685e+002
1.590985e+003,1.019553e+002
1.592913e+003,1.019364e+002
1.594842e+003,1.019104e+002
1.596770e+003,1.018766e+002
1.598699e+003,1.018349e+002
1.600627e+003,1.017861e+002
1.602556e+003,1.017325e+002
1.604484e+003,1.016770e+002
1.606413e+003,1.016226e+002
1.608341e+003,1.015714e+002
1.610270e+003,1.015247e+002
1.612198e+003,1.014823e+002
1.614127e+003,1.014434e+002
1.616055e+003,1.014065e+002
1.617984e+003,1.013705e+002
1.619912e+003,1.013346e+002
1.621840e+003,1.012987e+002
1.623769e+003,1.012637e+002
1.625697e+003,1.012311e+002
1.627626e+003,1.012027e+002
1.629554e+003,1.011808e+002
1.631483e+003,1.011674e+002
1.633411e+003,1.011634e+002
1.635340e+003,1.011680e+002
1.637268e+003,1.011790e+002
1.639197e+003,1.011937e+002
1.641125e+003,1.012102e+002
1.643054e+003,1.012286e+002
1.644982e+003,1.012508e+002
1.646911e+003,1.012796e+002
1.648839e+003,1.013167e+002
1.650767e+003,1.013605e+002
1.652696e+003,1.014062e+002
1.654624e+003,1.014480e+002
1.656553e+003,1.014829e+002
1.658481e+003,1.015110e+002
1.660410e+003,1.015358e+002
1.662338e+003,1.015618e+002
1.664267e+003,1.015936e+002
1.666195e+003,1.016341e+002
1.668124e+003,1.016832e+002
1.670052e+003,1.017380e+002
1.671981e+003,1.017946e+002
1.673909e+003,1.018491e+002
1.675838e+003,1.018997e+002
1.677766e+003,1.019469e+002
1.679694e+003,1.019920e+002
1.681623e+003,1.020364e+002
1.683551e+003,1.020800e+002
1.685480e+003,1.021216e+002
1.687408e+003,1.021598e+002
1.689337e+003,1.021937e+002
1.691265e+003,1.022237e+002
1.693194e+003,1.022506e+002
1.695122e+003,1.022753e+002
1.697051e+003,1.022977e+002
1.698979e+003,1.023169e+002
1.700908e+003,1.023311e+002
1.702836e+003,1.023394e+002
1.704765e+003,1.023427e+002
1.706693e+003,1.023433e+002
1.708621e+003,1.023443e+002
1.710550e+003,1.023492e+002
1.712478e+003,1.023607e+002
1.714407e+003,1.023795e+002
1.716335e+003,1.024043e+002
1.718264e+003,1.024318e+002
1.720192e+003,1.024582e+002
1.722121e+003,1.024809e+002
1.724049e+003,1.024989e+002
1.725978e+003,1.025131e+002
1.727906e+003,1.025254e+002
1.729835e+003,1.025375e+002
1.731763e+003,1.025511e+002
1.733692e+003,1.025667e+002
1.735620e+003,1.025837e+002
1.737548e+003,1.026013e+002
1.739477e+003,1.026184e+002
1.741405e+003,1.026349e+002
1.743334e+003,1.026507e+002
1.745262e+003,1.026665e+002
1.747191e+003,1.026824e+002
1.749119e+003,1.026982e+002
1.751048e+003,1.027129e+002
1.752976e+003,1.027252e+002
1.754905e+003,1.027336e+002
1.756833e+003,1.027365e+002
1.758762e+003,1.027332e+002
1.760690e+003,1.027232e+002
1.762619e+003,1.027067e+002
1.764547e+003,1.026848e+002
1.766475e+003,1.026600e+002
1.768404e+003,1.026351e+002
1.770332e+003,1.026136e+002
1.772261e+003,1.025982e+002
1.774189e+003,1.025903e+002
1.776118e+003,1.025895e+002
1.778046e+003,1.025942e+002
1.779975e+003,1.026019e+002
1.781903e+003,1.026102e+002
1.783832e+003,1.026170e+002
1.785760e+003,1.026210e+002
1.787689e+003,1.026217e+002
1.789617e+003,1.026193e+002
1.791546e+003,1.026146e+002
1.793474e+003,1.026086e+002
1.795402e+003,1.026021e+002
1.797331e+003,1.025954e+002
1.799259e+003,1.025885e+002
1.801188e+003,1.025812e+002
1.803116e+003,1.025732e+002
1.805045e+003,1.025646e+002
1.806973e+003,1.025554e+002
1.808902e+003,1.025457e+002
1.810830e+003,1.025355e+002
1.812759e+003,1.025241e+002
1.814687e+003,1.025109e+002
1.816616e+003,1.024950e+002
1.818544e+003,1.024761e+002
1.820473e+003,1.024549e+002
1.822401e+003,1.024327e+002
1.824329e+003,1.024118e+002
1.826258e+003,1.023942e+002
1.828186e+003,1.023809e+002
1.830115e+003,1.023713e+002
1.832043e+003,1.023633e+002
1.833972e+003,1.023543e+002
1.835900e+003,1.023423e+002
1.837829e+003,1.023265e+002
1.839757e+003,1.023080e+002
1.841686e+003,1.022895e+002
1.843614e+003,1.022743e+002
1.845543e+003,1.022652e+002
1.847471e+003,1.022636e+002
1.849400e+003,1.022687e+002
1.851328e+003,1.022779e+002
1.853256e+003,1.022877e+002
1.855185e+003,1.022950e+002
1.857113e+003,1.022969e+002
1.859042e+003,1.022923e+002
1.860970e+003,1.022810e+002
1.862899e+003,1.022645e+002
1.864827e+003,1.022454e+002
1.866756e+003,1.022264e+002
1.868684e+003,1.022104e+002
1.870613e+003,1.021993e+002
1.872541e+003,1.021939e+002
1.874470e+003,1.021942e+002
1.876398e+003,1.022001e+002
1.878327e+003,1.022113e+002
1.880255e+003,1.022279e+002
1.882183e+003,1.022497e+002
1.884112e+003,1.022757e+002
1.886040e+003,1.023033e+002
1.887969e+003,1.023286e+002
1.889897e+003,1.023465e+002
1.891826e+003,1.023527e+002
1.893754e+003,1.023445e+002
1.895683e+003,1.023219e+002
1.897611e+003,1.022872e+002
1.899540e+003,1.022445e+002
1.901468e+003,1.021985e+002
1.903396e+003,1.021531e+002
1.905325e+003,1.021111e+002
1.907253e+003,1.020737e+002
1.909182e+003,1.020415e+002
1.911110e+003,1.020149e+002
1.913039e+003,1.019943e+002
1.914967e+003,1.019804e+002
1.916896e+003,1.019733e+002
1.918824e+003,1.019720e+002
1.920753e+003,1.019743e+002
1.922681e+003,1.019772e+002
1.924610e+003,1.019775e+002
1.926538e+003,1.019738e+002
1.928467e+003,1.019657e+002
1.930395e+003,1.019539e+002
1.932323e+003,1.019393e+002
1.934252e+003,1.019216e+002
1.936180e+003,1.018993e+002
1.938109e+003,1.018696e+002
1.940037e+003,1.018297e+002
1.941966e+003,1.017786e+002
1.943894e+003,1.017175e+002
1.945823e+003,1.016505e+002
1.947751e+003,1.015822e+002
1.949680e+003,1.015179e+002
1.951608e+003,1.014607e+002
1.953537e+003,1.014132e+002
1.955465e+003,1.013778e+002
1.957394e+003,1.013577e+002
1.959322e+003,1.013576e+002
1.961250e+003,1.013819e+002
1.963179e+003,1.014324e+002
1.965107e+003,1.015046e+002
1.967036e+003,1.015887e+002
1.968964e+003,1.016708e+002
1.970893e+003,1.017370e+002
1.972821e+003,1.017789e+002
1.974750e+003,1.017962e+002
1.976678e+003,1.017957e+002
1.978607e+003,1.017880e+002
1.980535e+003,1.017816e+002
1.982464e+003,1.017804e+002
1.984392e+003,1.017822e+002
1.986321e+003,1.017808e+002
1.988249e+003,1.017691e+002
1.990177e+003,1.017414e+002
1.992106e+003,1.016947e+002
1.994034e+003,1.016294e+002
1.995963e+003,1.015484e+002
1.997891e+003,1.014560e+002
1.999820e+003,1.013573e+002
2.001748e+003,1.012580e+002
2.003677e+003,1.011643e+002
2.005605e+003,1.010823e+002
2.007534e+003,1.010174e+002
2.009462e+003,1.009718e+002
2.011391e+003,1.009438e+002
2.013319e+003,1.009292e+002
2.015248e+003,1.009223e+002
2.017176e+003,1.009202e+002
2.019104e+003,1.009237e+002
2.021033e+003,1.009371e+002
2.022961e+003,1.009660e+002
2.024890e+003,1.010139e+002
2.026818e+003,1.010801e+002
2.028747e+003,1.011592e+002
2.030675e+003,1.012426e+002
2.032604e+003,1.013224e+002
2.034532e+003,1.013931e+002
2.036461e+003,1.014530e+002
2.038389e+003,1.015034e+002
2.040318e+003,1.015476e+002
2.042246e+003,1.015885e+002
2.044175e+003,1.016282e+002
2.046103e+003,1.016677e+002
2.048031e+003,1.017071e+002
2.049960e+003,1.017459e+002
2.051888e+003,1.017828e+002
2.053817e+003,1.018154e+002
2.055745e+003,1.018403e+002
2.057674e+003,1.018536e+002
2.059602e+003,1.018526e+002
2.061531e+003,1.018368e+002
2.063459e+003,1.018093e+002
2.065388e+003,1.017764e+002
2.067316e+003,1.017468e+002
2.069245e+003,1.017289e+002
2.071173e+003,1.017279e+002
2.073102e+003,1.017453e+002
2.075030e+003,1.017788e+002
2.076958e+003,1.018231e+002
2.078887e+003,1.018722e+002
2.080815e+003,1.019214e+002
2.082744e+003,1.019670e+002
2.084672e+003,1.020070e+002
2.086601e+003,1.020402e+002
2.088529e+003,1.020658e+002
2.090458e+003,1.020827e+002
2.092386e+003,1.020907e+002
2.094315e+003,1.020901e+002
2.096243e+003,1.020830e+002
2.098172e+003,1.020725e+002
2.100100e+003,1.020618e+002
2.102029e+003,1.020530e+002
2.103957e+003,1.020466e+002
2.105885e+003,1.020405e+002
2.107814e+003,1.020320e+002
2.109742e+003,1.020186e+002
2.111671e+003,1.019989e+002
2.113599e+003,1.019736e+002
2.115528e+003,1.019449e+002
2.117456e+003,1.019152e+002
2.119385e+003,1.018865e+002
2.121313e+003,1.018597e+002
2.123242e+003,1.018340e+002
2.125170e+003,1.018081e+002
2.127099e+003,1.017802e+002
2.129027e+003,1.017490e+002
2.130956e+003,1.017141e+002
2.132884e+003,1.016759e+002
2.134813e+003,1.016355e+002
2.136741e+003,1.015946e+002
2.138669e+003,1.015552e+002
2.140598e+003,1.015193e+002
2.142526e+003,1.014888e+002
2.144455e+003,1.014641e+002
2.146383e+003,1.014445e+002
2.148312e+003,1.014272e+002
2.150240e+003,1.014087e+002
2.152169e+003,1.013874e+002
2.154097e+003,1.013654e+002
2.156026e+003,1.013497e+002
2.157954e+003,1.013494e+002
2.159883e+003,1.013714e+002
2.161811e+003,1.014132e+002
2.163740e+003,1.014628e+002
2.165668e+003,1.015018e+002
2.167596e+003,1.015133e+002
2.169525e+003,1.014868e+002
2.171453e+003,1.014237e+002
2.173382e+003,1.013362e+002
2.175310e+003,1.012466e+002
2.177239e+003,1.011787e+002
2.179167e+003,1.011506e+002
2.181096e+003,1.011697e+002
2.183024e+003,1.012310e+002
2.184953e+003,1.013197e+002
2.186881e+003,1.014168e+002
2.188810e+003,1.015075e+002
2.190738e+003,1.015827e+002
2.192667e+003,1.016404e+002
2.194595e+003,1.016840e+002
2.196523e+003,1.017186e+002
2.198452e+003,1.017482e+002
2.200380e+003,1.017751e+002
2.202309e+003,1.017993e+002
2.204237e+003,1.018207e+002
2.206166e+003,1.018394e+002
2.208094e+003,1.018564e+002
2.210023e+003,1.018730e+002
2.211951e+003,1.018906e+002
2.213880e+003,1.019102e+002
2.215808e+003,1.019324e+002
2.217737e+003,1.019579e+002
2.219665e+003,1.019875e+002
2.221594e+003,1.020218e+002
2.223522e+003,1.020604e+002
2.225450e+003,1.021017e+002
2.227379e+003,1.021427e+002
2.229307e+003,1.021788e+002
2.231236e+003,1.022062e+002
2.233164e+003,1.022225e+002
2.235093e+003,1.022272e+002
2.237021e+003,1.022217e+002
2.238950e+003,1.022085e+002
2.240878e+003,1.021897e+002
2.242807e+003,1.021662e+002
2.244735e+003,1.021383e+002
2.246664e+003,1.021062e+002
2.248592e+003,1.020716e+002
2.250521e+003,1.020385e+002
2.252449e+003,1.020120e+002
2.254377e+003,1.019978e+002
2.256306e+003,1.020005e+002
2.258234e+003,1.020214e+002
2.260163e+003,1.020586e+002
2.262091e+003,1.021071e+002
2.264020e+003,1.021602e+002
2.265948e+003,1.022112e+002
2.267877e+003,1.022545e+002
2.269805e+003,1.022869e+002
2.271734e+003,1.023070e+002
2.273662e+003,1.023158e+002
2.275591e+003,1.023154e+002
2.277519e+003,1.023092e+002
2.279448e+003,1.023011e+002
2.281376e+003,1.022944e+002
2.283304e+003,1.022921e+002
2.285233e+003,1.022956e+002
2.287161e+003,1.023048e+002
2.289090e+003,1.023180e+002
2.291018e+003,1.023331e+002
2.292947e+003,1.023476e+002
2.294875e+003,1.023595e+002
2.296804e+003,1.023680e+002
2.298732e+003,1.023733e+002
2.300661e+003,1.023762e+002
2.302589e+003,1.023780e+002
2.304518e+003,1.023799e+002
2.306446e+003,1.023826e+002
2.308375e+003,1.023865e+002
2.310303e+003,1.023916e+002
2.312231e+003,1.023975e+002
2.314160e+003,1.024033e+002
2.316088e+003,1.024078e+002
2.318017e+003,1.024096e+002
2.319945e+003,1.024073e+002
2.321874e+003,1.024002e+002
2.323802e+003,1.023884e+002
2.325731e+003,1.023735e+002
2.327659e+003,1.023584e+002
2.329588e+003,1.023462e+002
2.331516e+003,1.023403e+002
2.333445e+003,1.023426e+002
2.335373e+003,1.023526e+002
2.337302e+003,1.023676e+002
2.339230e+003,1.023834e+002
2.341158e+003,1.023955e+002
2.343087e+003,1.024006e+002
2.345015e+003,1.023972e+002
2.346944e+003,1.023849e+002
2.348872e+003,1.023643e+002
2.350801e+003,1.023362e+002
2.352729e+003,1.023018e+002
2.354658e+003,1.022631e+002
2.356586e+003,1.022233e+002
2.358515e+003,1.021877e+002
2.360443e+003,1.021620e+002
2.362372e+003,1.021507e+002
2.364300e+003,1.021551e+002
2.366229e+003,1.021723e+002
2.368157e+003,1.021964e+002
2.370085e+003,1.022209e+002
2.372014e+003,1.022401e+002
2.373942e+003,1.022503e+002
2.375871e+003,1.022498e+002
2.377799e+003,1.022392e+002
2.379728e+003,1.022199e+002
2.381656e+003,1.021946e+002
2.383585e+003,1.021659e+002
2.385513e+003,1.021370e+002
2.387442e+003,1.021109e+002
2.389370e+003,1.020901e+002
2.391299e+003,1.020763e+002
2.393227e+003,1.020704e+002
2.395156e+003,1.020717e+002
2.397084e+003,1.020790e+002
2.399012e+003,1.020899e+002
2.400941e+003,1.021022e+002
2.402869e+003,1.021137e+002
2.404798e+003,1.021232e+002
2.406726e+003,1.021297e+002
2.408655e+003,1.021330e+002
2.410583e+003,1.021333e+002
2.412512e+003,1.021307e+002
2.414440e+003,1.021262e+002
2.416369e+003,1.021203e+002
2.418297e+003,1.021145e+002
2.420226e+003,1.021101e+002
2.422154e+003,1.021086e+002
2.424083e+003,1.021110e+002
2.426011e+003,1.021176e+002
2.427939e+003,1.021276e+002
2.429868e+003,1.021394e+002
2.431796e+003,1.021506e+002
2.433725e+003,1.021587e+002
2.435653e+003,1.021616e+002
2.437582e+003,1.021578e+002
2.439510e+003,1.021472e+002
2.441439e+003,1.021308e+002
2.443367e+003,1.021105e+002
2.445296e+003,1.020891e+002
2.447224e+003,1.020693e+002
2.449153e+003,1.020535e+002
2.451081e+003,1.020427e+002
2.453010e+003,1.020370e+002
2.454938e+003,1.020349e+002
2.456866e+003,1.020339e+002
2.458795e+003,1.020316e+002
2.460723e+003,1.020261e+002
2.462652e+003,1.020166e+002
2.464580e+003,1.020038e+002
2.466509e+003,1.019891e+002
2.468437e+003,1.019743e+002
2.470366e+003,1.019606e+002
2.472294e+003,1.019486e+002
2.474223e+003,1.019381e+002
2.476151e+003,1.019286e+002
2.478080e+003,1.019201e+002
2.480008e+003,1.019128e+002
2.481937e+003,1.019081e+002
2.483865e+003,1.019073e+002
2.485793e+003,1.019113e+002
2.487722e+003,1.019199e+002
2.489650e+003,1.019316e+002
2.491579e+003,1.019438e+002
2.493507e+003,1.019531e+002
2.495436e+003,1.019569e+002
2.497364e+003,1.019533e+002
2.499293e+003,1.019422e+002
2.501221e+003,1.019252e+002
2.503150e+003,1.019049e+002
2.505078e+003,1.018853e+002
2.507007e+003,1.018698e+002
2.508935e+003,1.018615e+002
2.510864e+003,1.018622e+002
2.512792e+003,1.018717e+002
2.514720e+003,1.018883e+002
2.516649e+003,1.019087e+002
2.518577e+003,1.019289e+002
2.520506e+003,1.019450e+002
2.522434e+003,1.019544e+002
2.524363e+003,1.019562e+002
2.526291e+003,1.019516e+002
2.528220e+003,1.019430e+002
2.530148e+003,1.019336e+002
2.532077e+003,1.019262e+002
2.534005e+003,1.019221e+002
2.535934e+003,1.019213e+002
2.537862e+003,1.019225e+002
2.539791e+003,1.019238e+002
2.541719e+003,1.019234e+002
2.543647e+003,1.019205e+002
2.545576e+003,1.019151e+002
2.547504e+003,1.019084e+002
2.549433e+003,1.019023e+002
2.551361e+003,1.018986e+002
2.553290e+003,1.018988e+002
2.555218e+003,1.019034e+002
2.557147e+003,1.019120e+002
2.559075e+003,1.019228e+002
2.561004e+003,1.019333e+002
2.562932e+003,1.019409e+002
2.564861e+003,1.019432e+002
2.566789e+003,1.019395e+002
2.568718e+003,1.019304e+002
2.570646e+003,1.019182e+002
2.572574e+003,1.019063e+002
2.574503e+003,1.018979e+002
2.576431e+003,1.018950e+002
2.578360e+003,1.018977e+002
2.580288e+003,1.019042e+002
2.582217e+003,1.019113e+002
2.584145e+003,1.019156e+002
2.586074e+003,1.019146e+002
2.588002e+003,1.019077e+002
2.589931e+003,1.018962e+002
2.591859e+003,1.018826e+002
2.593788e+003,1.018702e+002
2.595716e+003,1.018618e+002
2.597645e+003,1.018591e+002
2.599573e+003,1.018625e+002
2.601501e+003,1.018714e+002
2.603430e+003,1.018845e+002
2.605358e+003,1.019001e+002
2.607287e+003,1.019166e+002
2.609215e+003,1.019324e+002
2.611144e+003,1.019462e+002
2.613072e+003,1.019565e+002
2.615001e+003,1.019626e+002
2.616929e+003,1.019639e+002
2.618858e+003,1.019608e+002
2.620786e+003,1.019544e+002
2.622715e+003,1.019463e+002
2.624643e+003,1.019384e+002
2.626572e+003,1.019322e+002
2.628500e+003,1.019285e+002
2.630428e+003,1.019276e+002
2.632357e+003,1.019286e+002
2.634285e+003,1.019304e+002
2.636214e+003,1.019317e+002
2.638142e+003,1.019315e+002
2.640071e+003,1.019293e+002
2.641999e+003,1.019253e+002
2.643928e+003,1.019200e+002
2.645856e+003,1.019145e+002
2.647785e+003,1.019097e+002
2.649713e+003,1.019059e+002
2.651642e+003,1.019030e+002
2.653570e+003,1.019002e+002
2.655499e+003,1.018963e+002
2.657427e+003,1.018903e+002
2.659355e+003,1.018815e+002
2.661284e+003,1.018702e+002
2.663212e+003,1.018574e+002
2.665141e+003,1.018449e+002
2.667069e+003,1.018343e+002
2.668998e+003,1.018270e+002
2.670926e+003,1.018235e+002
2.672855e+003,1.018233e+002
2.674783e+003,1.018247e+002
2.676712e+003,1.018259e+002
2.678640e+003,1.018249e+002
2.680569e+003,1.018208e+002
2.682497e+003,1.018131e+002
2.684426e+003,1.018022e+002
2.686354e+003,1.017894e+002
2.688282e+003,1.017757e+002
2.690211e+003,1.017622e+002
2.692139e+003,1.017494e+002
2.694068e+003,1.017374e+002
2.695996e+003,1.017261e+002
2.697925e+003,1.017149e+002
2.699853e+003,1.017034e+002
2.701782e+003,1.016912e+002
2.703710e+003,1.016783e+002
2.705639e+003,1.016646e+002
2.707567e+003,1.016504e+002
2.709496e+003,1.016362e+002
2.711424e+003,1.016226e+002
2.713353e+003,1.016100e+002
2.715281e+003,1.015985e+002
2.717209e+003,1.015882e+002
2.719138e+003,1.015786e+002
2.721066e+003,1.015698e+002
2.722995e+003,1.015614e+002
2.724923e+003,1.015539e+002
2.726852e+003,1.015476e+002
2.728780e+003,1.015431e+002
2.730709e+003,1.015406e+002
2.732637e+003,1.015400e+002
2.734566e+003,1.015407e+002
2.736494e+003,1.015417e+002
2.738423e+003,1.015419e+002
2.740351e+003,1.015404e+002
2.742280e+003,1.015365e+002
2.744208e+003,1.015304e+002
2.746136e+003,1.015222e+002
2.748065e+003,1.015126e+002
2.749993e+003,1.015021e+002
2.751922e+003,1.014912e+002
2.753850e+003,1.014808e+002
2.755779e+003,1.014713e+002
2.757707e+003,1.014636e+002
2.759636e+003,1.014580e+002
2.761564e+003,1.014546e+002
2.763493e+003,1.014530e+002
2.765421e+003,1.014519e+002
2.767350e+003,1.014500e+002
2.769278e+003,1.014457e+002
2.771207e+003,1.014383e+002
2.773135e+003,1.014278e+002
2.775063e+003,1.014152e+002
2.776992e+003,1.014019e+002
2.778920e+003,1.013894e+002
2.780849e+003,1.013786e+002
2.782777e+003,1.013696e+002
2.784706e+003,1.013613e+002
2.786634e+003,1.013524e+002
2.788563e+003,1.013414e+002
2.790491e+003,1.013274e+002
2.792420e+003,1.013102e+002
2.794348e+003,1.012902e+002
2.796277e+003,1.012682e+002
2.798205e+003,1.012448e+002
2.800134e+003,1.012205e+002
2.802062e+003,1.011950e+002
2.803990e+003,1.011679e+002
2.805919e+003,1.011388e+002
2.807847e+003,1.011074e+002
2.809776e+003,1.010737e+002
2.811704e+003,1.010380e+002
2.813633e+003,1.010007e+002
2.815561e+003,1.009621e+002
2.817490e+003,1.009221e+002
2.819418e+003,1.008808e+002
2.821347e+003,1.008378e+002
2.823275e+003,1.007925e+002
2.825204e+003,1.007443e+002
2.827132e+003,1.006917e+002
2.829061e+003,1.006330e+002
2.830989e+003,1.005659e+002
2.832917e+003,1.004884e+002
2.834846e+003,1.003988e+002
2.836774e+003,1.002971e+002
2.838703e+003,1.001852e+002
2.840631e+003,1.000665e+002
2.842560e+003,9.994662e+001
2.844488e+003,9.983194e+001
2.846417e+003,9.972804e+001
2.848345e+003,9.963920e+001
2.850274e+003,9.956705e+001
2.852202e+003,9.951045e+001
2.854131e+003,9.946587e+001
2.856059e+003,9.942868e+001
2.857988e+003,9.939429e+001
2.859916e+003,9.935905e+001
2.861844e+003,9.932136e+001
2.863773e+003,9.928133e+001
2.865701e+003,9.924062e+001
2.867630e+003,9.920136e+001
2.869558e+003,9.916550e+001
2.871487e+003,9.913370e+001
2.873415e+003,9.910506e+001
2.875344e+003,9.907705e+001
2.877272e+003,9.904612e+001
2.879201e+003,9.900874e+001
2.881129e+003,9.896227e+001
2.883058e+003,9.890604e+001
2.884986e+003,9.884155e+001
2.886915e+003,9.877266e+001
2.888843e+003,9.870411e+001
2.890771e+003,9.864114e+001
2.892700e+003,9.858798e+001
2.894628e+003,9.854704e+001
2.896557e+003,9.851886e+001
2.898485e+003,9.850242e+001
2.900414e+003,9.849588e+001
2.902342e+003,9.849751e+001
2.904271e+003,9.850643e+001
2.906199e+003,9.852307e+001
2.908128e+003,9.854910e+001
2.910056e+003,9.858691e+001
2.911985e+003,9.863912e+001
2.913913e+003,9.870787e+001
2.915842e+003,9.879415e+001
2.917770e+003,9.889731e+001
2.919698e+003,9.901482e+001
2.921627e+003,9.914267e+001
2.923555e+003,9.927538e+001
2.925484e+003,9.940704e+001
2.927412e+003,9.953244e+001
2.929341e+003,9.964716e+001
2.931269e+003,9.974882e+001
2.933198e+003,9.983685e+001
2.935126e+003,9.991241e+001
2.937055e+003,9.997781e+001
2.938983e+003,1.000360e+002
2.940912e+003,1.000899e+002
2.942840e+003,1.001420e+002
2.944769e+003,1.001943e+002
2.946697e+003,1.002479e+002
2.948625e+003,1.003038e+002
2.950554e+003,1.003624e+002
2.952482e+003,1.004234e+002
2.954411e+003,1.004862e+002
2.956339e+003,1.005496e+002
2.958268e+003,1.006119e+002
2.960196e+003,1.006717e+002
2.962125e+003,1.007279e+002
2.964053e+003,1.007804e+002
2.965982e+003,1.008301e+002
2.967910e+003,1.008789e+002
2.969839e+003,1.009284e+002
2.971767e+003,1.009798e+002
2.973696e+003,1.010331e+002
2.975624e+003,1.010871e+002
2.977552e+003,1.011393e+002
2.979481e+003,1.011868e+002
2.981409e+003,1.012271e+002
2.983338e+003,1.012588e+002
2.985266e+003,1.012812e+002
2.987195e+003,1.012953e+002
2.989123e+003,1.013023e+002
2.991052e+003,1.013040e+002
2.992980e+003,1.013019e+002
2.994909e+003,1.012973e+002
2.996837e+003,1.012913e+002
2.998766e+003,1.012848e+002
3.000694e+003,1.012790e+002
3.002623e+003,1.012742e+002
3.004551e+003,1.012707e+002
3.006479e+003,1.012680e+002
3.008408e+003,1.012649e+002
3.010336e+003,1.012597e+002
3.012265e+003,1.012508e+002
3.014193e+003,1.012372e+002
3.016122e+003,1.012185e+002
3.018050e+003,1.011953e+002
3.019979e+003,1.011688e+002
3.021907e+003,1.011403e+002
3.023836e+003,1.011112e+002
3.025764e+003,1.010825e+002
3.027693e+003,1.010548e+002
3.029621e+003,1.010285e+002
3.031550e+003,1.010033e+002
3.033478e+003,1.009791e+002
3.035406e+003,1.009554e+002
3.037335e+003,1.009315e+002
3.039263e+003,1.009073e+002
3.041192e+003,1.008823e+002
3.043120e+003,1.008569e+002
3.045049e+003,1.008317e+002
3.046977e+003,1.008077e+002
3.048906e+003,1.007855e+002
3.050834e+003,1.007654e+002
3.052763e+003,1.007470e+002
3.054691e+003,1.007285e+002
3.056620e+003,1.007084e+002
3.058548e+003,1.006848e+002
3.060477e+003,1.006569e+002
3.062405e+003,1.006254e+002
3.064333e+003,1.005919e+002
3.066262e+003,1.005588e+002
3.068190e+003,1.005282e+002
3.070119e+003,1.005011e+002
3.072047e+003,1.004770e+002
3.073976e+003,1.004539e+002
3.075904e+003,1.004289e+002
3.077833e+003,1.003997e+002
3.079761e+003,1.003645e+002
3.081690e+003,1.003236e+002
3.083618e+003,1.002784e+002
3.085547e+003,1.002316e+002
3.087475e+003,1.001854e+002
3.089404e+003,1.001417e+002
3.091332e+003,1.001009e+002
3.093260e+003,1.000624e+002
3.095189e+003,1.000245e+002
3.097117e+003,9.998558e+001
3.099046e+003,9.994450e+001
3.100974e+003,9.990081e+001
3.102903e+003,9.985511e+001
3.104831e+003,9.980836e+001
3.106760e+003,9.976189e+001
3.108688e+003,9.971669e+001
3.110617e+003,9.967327e+001
3.112545e+003,9.963177e+001
3.114474e+003,9.959187e+001
3.116402e+003,9.955309e+001
3.118331e+003,9.951476e+001
3.120259e+003,9.947628e+001
3.122188e+003,9.943696e+001
3.124116e+003,9.939597e+001
3.126044e+003,9.935254e+001
3.127973e+003,9.930590e+001
3.129901e+003,9.925556e+001
3.131830e+003,9.920139e+001
3.133758e+003,9.914382e+001
3.135687e+003,9.908378e+001
3.137615e+003,9.902242e+001
3.139544e+003,9.896103e+001
3.141472e+003,9.890054e+001
3.143401e+003,9.884128e+001
3.145329e+003,9.878296e+001
3.147258e+003,9.872461e+001
3.149186e+003,9.866490e+001
3.151115e+003,9.860236e+001
3.153043e+003,9.853606e+001
3.154971e+003,9.846554e+001
3.156900e+003,9.839140e+001
3.158828e+003,9.831479e+001
3.160757e+003,9.823770e+001
3.162685e+003,9.816223e+001
3.164614e+003,9.809019e+001
3.166542e+003,9.802283e+001
3.168471e+003,9.796058e+001
3.170399e+003,9.790286e+001
3.172328e+003,9.784817e+001
3.174256e+003,9.779433e+001
3.176185e+003,9.773894e+001
3.178113e+003,9.767951e+001
3.180042e+003,9.761423e+001
3.181970e+003,9.754212e+001
3.183898e+003,9.746323e+001
3.185827e+003,9.737850e+001
3.187755e+003,9.728982e+001
3.189684e+003,9.719911e+001
3.191612e+003,9.710793e+001
3.193541e+003,9.701708e+001
3.195469e+003,9.692632e+001
3.197398e+003,9.683453e+001
3.199326e+003,9.674026e+001
3.201255e+003,9.664227e+001
3.203183e+003,9.654016e+001
3.205112e+003,9.643463e+001
3.207040e+003,9.632719e+001
3.208969e+003,9.621989e+001
3.210897e+003,9.611452e+001
3.212825e+003,9.601217e+001
3.214754e+003,9.591290e+001
3.216682e+003,9.581597e+001
3.218611e+003,9.572025e+001
3.220539e+003,9.562431e+001
3.222468e+003,9.552707e+001
3.224396e+003,9.542764e+001
3.226325e+003,9.532538e+001
3.228253e+003,9.521987e+001
3.230182e+003,9.511089e+001
3.232110e+003,9.499856e+001
3.234039e+003,9.488335e+001
3.235967e+003,9.476612e+001
3.237896e+003,9.464764e+001
3.239824e+003,9.452824e+001
3.241752e+003,9.440724e+001
3.243681e+003,9.428307e+001
3.245609e+003,9.415347e+001
3.247538e+003,9.401628e+001
3.249466e+003,9.387053e+001
3.251395e+003,9.371699e+001
3.253323e+003,9.355870e+001
3.255252e+003,9.340010e+001
3.257180e+003,9.324653e+001
3.259109e+003,9.310291e+001
3.261037e+003,9.297258e+001
3.262966e+003,9.285733e+001
3.264894e+003,9.275719e+001
3.266823e+003,9.267097e+001
3.268751e+003,9.259669e+001
3.270679e+003,9.253225e+001
3.272608e+003,9.247556e+001
3.274536e+003,9.242489e+001
3.276465e+003,9.237902e+001
3.278393e+003,9.233760e+001
3.280322e+003,9.230122e+001
3.282250e+003,9.227110e+001
3.284179e+003,9.224891e+001
3.286107e+003,9.223593e+001
3.288036e+003,9.223247e+001
3.289964e+003,9.223756e+001
3.291893e+003,9.224894e+001
3.293821e+003,9.226375e+001
3.295750e+003,9.227877e+001
3.297678e+003,9.229132e+001
3.299606e+003,9.229936e+001
3.301535e+003,9.230133e+001
3.303463e+003,9.229609e+001
3.305392e+003,9.228275e+001
3.307320e+003,9.226079e+001
3.309249e+003,9.223006e+001
3.311177e+003,9.219119e+001
3.313106e+003,9.214545e+001
3.315034e+003,9.209438e+001
3.316963e+003,9.203972e+001
3.318891e+003,9.198280e+001
3.320820e+003,9.192487e+001
3.322748e+003,9.186750e+001
3.324677e+003,9.181292e+001
3.326605e+003,9.176479e+001
3.328533e+003,9.172805e+001
3.330462e+003,9.170795e+001
3.332390e+003,9.170921e+001
3.334319e+003,9.173491e+001
3.336247e+003,9.178557e+001
3.338176e+003,9.185950e+001
3.340104e+003,9.195348e+001
3.342033e+003,9.206396e+001
3.343961e+003,9.218741e+001
3.345890e+003,9.232095e+001
3.347818e+003,9.246201e+001
3.349747e+003,9.260757e+001
3.351675e+003,9.275430e+001
3.353604e+003,9.289868e+001
3.355532e+003,9.303733e+001
3.357460e+003,9.316830e+001
3.359389e+003,9.329126e+001
3.361317e+003,9.340753e+001
3.363246e+003,9.351929e+001
3.365174e+003,9.362889e+001
3.367103e+003,9.373759e+001
3.369031e+003,9.384549e+001
3.370959e+003,9.395154e+001
3.372888e+003,9.405418e+001
3.374816e+003,9.415236e+001
3.376745e+003,9.424561e+001
3.378673e+003,9.433437e+001
3.380602e+003,9.441955e+001
3.382530e+003,9.450203e+001
3.384459e+003,9.458224e+001
3.386387e+003,9.466008e+001
3.388316e+003,9.473528e+001
3.390244e+003,9.480778e+001
3.392173e+003,9.487804e+001
3.394101e+003,9.494738e+001
3.396030e+003,9.501732e+001
3.397958e+003,9.508975e+001
3.399886e+003,9.516600e+001
3.401815e+003,9.524686e+001
3.403743e+003,9.533249e+001
3.405672e+003,9.542265e+001
3.407600e+003,9.551690e+001
3.409529e+003,9.561476e+001
3.411457e+003,9.571600e+001
3.413386e+003,9.582027e+001
3.415314e+003,9.592709e+001
3.417243e+003,9.603574e+001
3.419171e+003,9.614495e+001
3.421100e+003,9.625330e+001
3.423028e+003,9.635931e+001
3.424957e+003,9.646187e+001
3.426885e+003,9.656059e+001
3.428813e+003,9.665592e+001
3.430742e+003,9.674908e+001
3.432670e+003,9.684170e+001
3.434599e+003,9.693513e+001
3.436527e+003,9.703020e+001
3.438456e+003,9.712670e+001
3.440384e+003,9.722340e+001
3.442313e+003,9.731844e+001
3.444241e+003,9.741005e+001
3.446170e+003,9.749677e+001
3.448098e+003,9.757826e+001
3.450027e+003,9.765509e+001
3.451955e+003,9.772861e+001
3.453884e+003,9.780053e+001
3.455812e+003,9.787253e+001
3.457740e+003,9.794601e+001
3.459669e+003,9.802190e+001
3.461597e+003,9.810072e+001
3.463526e+003,9.818254e+001
3.465454e+003,9.826723e+001
3.467383e+003,9.835442e+001
3.469311e+003,9.844347e+001
3.471240e+003,9.853376e+001
3.473168e+003,9.862451e+001
3.475097e+003,9.871479e+001
3.477025e+003,9.880341e+001
3.478954e+003,9.888882e+001
3.480882e+003,9.896905e+001
3.482811e+003,9.904234e+001
3.484739e+003,9.910721e+001
3.486667e+003,9.916340e+001
3.488596e+003,9.921228e+001
3.490524e+003,9.925700e+001
3.492453e+003,9.930163e+001
3.494381e+003,9.935082e+001
3.496310e+003,9.940826e+001
3.498238e+003,9.947555e+001
3.500167e+003,9.955184e+001
3.502095e+003,9.963378e+001
3.504024e+003,9.971672e+001
3.505952e+003,9.979571e+001
3.507881e+003,9.986738e+001
3.509809e+003,9.993045e+001
3.511738e+003,9.998587e+001
3.513666e+003,1.000361e+002
3.515594e+003,1.000846e+002
3.517523e+003,1.001348e+002
3.519451e+003,1.001892e+002
3.521380e+003,1.002490e+002
3.523308e+003,1.003140e+002
3.525237e+003,1.003822e+002
3.527165e+003,1.004505e+002
3.529094e+003,1.005158e+002
3.531022e+003,1.005757e+002
3.532951e+003,1.006289e+002
3.534879e+003,1.006766e+002
3.536808e+003,1.007211e+002
3.538736e+003,1.007657e+002
3.540665e+003,1.008133e+002
3.542593e+003,1.008648e+002
3.544521e+003,1.009191e+002
3.546450e+003,1.009730e+002
3.548378e+003,1.010226e+002
3.550307e+003,1.010649e+002
3.552235e+003,1.010995e+002
3.554164e+003,1.011285e+002
3.556092e+003,1.011559e+002
3.558021e+003,1.011861e+002
3.559949e+003,1.012223e+002
3.561878e+003,1.012653e+002
3.563806e+003,1.013128e+002
3.565735e+003,1.013603e+002
3.567663e+003,1.014034e+002
3.569592e+003,1.014394e+002
3.571520e+003,1.014682e+002
3.573448e+003,1.014917e+002
3.575377e+003,1.015130e+002
3.577305e+003,1.015349e+002
3.579234e+003,1.015600e+002
3.581162e+003,1.015899e+002
3.583091e+003,1.016260e+002
3.585019e+003,1.016690e+002
3.586948e+003,1.017188e+002
3.588876e+003,1.017745e+002
3.590805e+003,1.018331e+002
3.592733e+003,1.018907e+002
3.594662e+003,1.019426e+002
3.596590e+003,1.019846e+002
3.598519e+003,1.020143e+002
3.600447e+003,1.020316e+002
3.602375e+003,1.020396e+002
3.604304e+003,1.020428e+002
3.606232e+003,1.020469e+002
3.608161e+003,1.020572e+002
3.610089e+003,1.020768e+002
3.612018e+003,1.021063e+002
3.613946e+003,1.021445e+002
3.615875e+003,1.021895e+002
3.617803e+003,1.022396e+002
3.619732e+003,1.022936e+002
3.621660e+003,1.023502e+002
3.623589e+003,1.024067e+002
3.625517e+003,1.024588e+002
3.627446e+003,1.025009e+002
3.629374e+003,1.025281e+002
3.631302e+003,1.025378e+002
3.633231e+003,1.025311e+002
3.635159e+003,1.025123e+002
3.637088e+003,1.024875e+002
3.639016e+003,1.024646e+002
3.640945e+003,1.024520e+002
3.642873e+003,1.024571e+002
3.644802e+003,1.024850e+002
3.646730e+003,1.025348e+002
3.648659e+003,1.025988e+002
3.650587e+003,1.026635e+002
3.652516e+003,1.027153e+002
3.654444e+003,1.027459e+002
3.656373e+003,1.027528e+002
3.658301e+003,1.027390e+002
3.660229e+003,1.027103e+002
3.662158e+003,1.026749e+002
3.664086e+003,1.026414e+002
3.666015e+003,1.026186e+002
3.667943e+003,1.026127e+002
3.669872e+003,1.026252e+002
3.671800e+003,1.026517e+002
3.673729e+003,1.026834e+002
3.675657e+003,1.027126e+002
3.677586e+003,1.027353e+002
3.679514e+003,1.027522e+002
3.681443e+003,1.027671e+002
3.683371e+003,1.027841e+002
3.685300e+003,1.028055e+002
3.687228e+003,1.028298e+002
3.689156e+003,1.028527e+002
3.691085e+003,1.028685e+002
3.693013e+003,1.028728e+002
3.694942e+003,1.028643e+002
3.696870e+003,1.028447e+002
3.698799e+003,1.028186e+002
3.700727e+003,1.027913e+002
3.702656e+003,1.027678e+002
3.704584e+003,1.027514e+002
3.706513e+003,1.027430e+002
3.708441e+003,1.027413e+002
3.710370e+003,1.027425e+002
3.712298e+003,1.027428e+002
3.714227e+003,1.027392e+002
3.716155e+003,1.027306e+002
3.718083e+003,1.027173e+002
3.720012e+003,1.027014e+002
3.721940e+003,1.026856e+002
3.723869e+003,1.026732e+002
3.725797e+003,1.026670e+002
3.727726e+003,1.026691e+002
3.729654e+003,1.026797e+002
3.731583e+003,1.026971e+002
3.733511e+003,1.027178e+002
3.735440e+003,1.027378e+002
3.737368e+003,1.027538e+002
3.739297e+003,1.027640e+002
3.741225e+003,1.027691e+002
3.743154e+003,1.027713e+002
3.745082e+003,1.027735e+002
3.747010e+003,1.027779e+002
3.748939e+003,1.027853e+002
3.750867e+003,1.027946e+002
3.752796e+003,1.028043e+002
3.754724e+003,1.028131e+002
3.756653e+003,1.028204e+002
3.758581e+003,1.028269e+002
3.760510e+003,1.028334e+002
3.762438e+003,1.028410e+002
3.764367e+003,1.028503e+002
3.766295e+003,1.028614e+002
3.768224e+003,1.028743e+002
3.770152e+003,1.028885e+002
3.772081e+003,1.029037e+002
3.774009e+003,1.029197e+002
3.775938e+003,1.029355e+002
3.777866e+003,1.029498e+002
3.779794e+003,1.029603e+002
3.781723e+003,1.029649e+002
3.783651e+003,1.029620e+002
3.785580e+003,1.029514e+002
3.787508e+003,1.029344e+002
3.789437e+003,1.029137e+002
3.791365e+003,1.028929e+002
3.793294e+003,1.028750e+002
3.795222e+003,1.028619e+002
3.797151e+003,1.028538e+002
3.799079e+003,1.028486e+002
3.801008e+003,1.028436e+002
3.802936e+003,1.028366e+002
3.804865e+003,1.028276e+002
3.806793e+003,1.028188e+002
3.808721e+003,1.028136e+002
3.810650e+003,1.028150e+002
3.812578e+003,1.028246e+002
3.814507e+003,1.028411e+002
3.816435e+003,1.028605e+002
3.818364e+003,1.028770e+002
3.820292e+003,1.028858e+002
3.822221e+003,1.028851e+002
3.824149e+003,1.028769e+002
3.826078e+003,1.028659e+002
3.828006e+003,1.028574e+002
3.829935e+003,1.028560e+002
3.831863e+003,1.028635e+002
3.833792e+003,1.028782e+002
3.835720e+003,1.028951e+002
3.837648e+003,1.029088e+002
3.839577e+003,1.029147e+002
3.841505e+003,1.029120e+002
3.843434e+003,1.029026e+002
3.845362e+003,1.028909e+002
3.847291e+003,1.028816e+002
3.849219e+003,1.028785e+002
3.851148e+003,1.028830e+002
3.853076e+003,1.028934e+002
3.855005e+003,1.029061e+002
3.856933e+003,1.029169e+002
3.858862e+003,1.029231e+002
3.860790e+003,1.029240e+002
3.862719e+003,1.029210e+002
3.864647e+003,1.029163e+002
3.866575e+003,1.029124e+002
3.868504e+003,1.029111e+002
3.870432e+003,1.029129e+002
3.872361e+003,1.029171e+002
3.874289e+003,1.029228e+002
3.876218e+003,1.029288e+002
3.878146e+003,1.029341e+002
3.880075e+003,1.029384e+002
3.882003e+003,1.029410e+002
3.883932e+003,1.029417e+002
3.885860e+003,1.029402e+002
3.887789e+003,1.029366e+002
3.889717e+003,1.029316e+002
3.891646e+003,1.029264e+002
3.893574e+003,1.029227e+002
3.895502e+003,1.029221e+002
3.897431e+003,1.029253e+002
3.899359e+003,1.029318e+002
3.901288e+003,1.029392e+002
3.903216e+003,1.029447e+002
3.905145e+003,1.029455e+002
3.907073e+003,1.029404e+002
3.909002e+003,1.029300e+002
3.910930e+003,1.029161e+002
3.912859e+003,1.029013e+002
3.914787e+003,1.028887e+002
3.916716e+003,1.028803e+002
3.918644e+003,1.028769e+002
3.920573e+003,1.028775e+002
3.922501e+003,1.028801e+002
3.924429e+003,1.028820e+002
3.926358e+003,1.028811e+002
3.928286e+003,1.028761e+002
3.930215e+003,1.028670e+002
3.932143e+003,1.028543e+002
3.934072e+003,1.028393e+002
3.936000e+003,1.028232e+002
3.937929e+003,1.028074e+002
3.939857e+003,1.027931e+002
3.941786e+003,1.027816e+002
3.943714e+003,1.027740e+002
3.945643e+003,1.027709e+002
3.947571e+003,1.027723e+002
3.949500e+003,1.027771e+002
3.951428e+003,1.027837e+002
3.953356e+003,1.027902e+002
3.955285e+003,1.027951e+002
3.957213e+003,1.027980e+002
3.959142e+003,1.027995e+002
3.961070e+003,1.028009e+002
3.962999e+003,1.028041e+002
3.964927e+003,1.028104e+002
3.966856e+003,1.028198e+002
3.968784e+003,1.028314e+002
3.970713e+003,1.028434e+002
3.972641e+003,1.028537e+002
3.974570e+003,1.028608e+002
3.976498e+003,1.028642e+002
3.978427e+003,1.028646e+002
3.980355e+003,1.028634e+002
3.982283e+003,1.028619e+002
3.984212e+003,1.028612e+002
3.986140e+003,1.028615e+002
3.988069e+003,1.028622e+002
3.989997e+003,1.028626e+002
3.991926e+003,1.028622e+002
3.993854e+003,1.028611e+002
3.995783e+003,1.028603e+002
3.997711e+003,1.028612e+002
3.999640e+003,1.028648e+002
4.001568e+003,0.000000e+000
