3.991926e+002,2.622631e+001
4.011211e+002,2.624149e+001
4.030496e+002,2.630119e+001
4.049780e+002,2.635805e+001
4.069065e+002,2.636612e+001
4.088350e+002,2.629229e+001
4.107634e+002,2.612786e+001
4.126919e+002,2.588568e+001
4.146204e+002,2.559431e+001
4.165488e+002,2.528598e+001
4.184773e+002,2.498662e+001
4.204058e+002,2.470995e+001
4.223342e+002,2.445901e+001
4.242627e+002,2.423395e+001
4.261912e+002,2.403903e+001
4.281196e+002,2.388241e+001
4.300481e+002,2.377385e+001
4.319766e+002,2.371851e+001
4.339050e+002,2.371401e+001
4.358335e+002,2.375165e+001
4.377620e+002,2.382018e+001
4.396904e+002,2.391082e+001
4.416189e+002,2.401933e+001
4.435474e+002,2.414461e+001
4.454758e+002,2.428339e+001
4.474043e+002,2.442427e+001
4.493328e+002,2.454769e+001
4.512612e+002,2.462732e+001
4.531897e+002,2.463841e+001
4.551182e+002,2.456814e+001
4.570466e+002,2.441878e+001
4.589751e+002,2.420681e+001
4.609036e+002,2.395365e+001
4.628320e+002,2.367799e+001
4.647605e+002,2.338887e+001
4.666890e+002,2.308764e+001
4.686174e+002,2.277470e+001
4.705459e+002,2.245686e+001
4.724744e+002,2.215174e+001
4.744028e+002,2.188687e+001
4.763313e+002,2.168987e+001
4.782598e+002,2.158343e+001
4.801882e+002,2.157897e+001
4.821167e+002,2.167589e+001
4.840452e+002,2.186663e+001
4.859736e+002,2.214147e+001
4.879021e+002,2.249254e+001
4.898306e+002,2.291373e+001
4.917590e+002,2.339919e+001
4.936875e+002,2.394053e+001
4.956160e+002,2.452469e+001
4.975444e+002,2.513635e+001
4.994729e+002,2.575982e+001
5.014014e+002,2.638221e+001
5.033298e+002,2.699649e+001
5.052583e+002,2.760057e+001
5.071868e+002,2.819621e+001
5.091152e+002,2.878693e+001
5.110437e+002,2.937743e+001
5.129722e+002,2.997354e+001
5.149006e+002,3.058222e+001
5.168291e+002,3.121159e+001
5.187576e+002,3.186739e+001
5.206860e+002,3.254923e+001
5.226145e+002,3.324647e+001
5.245430e+002,3.393848e+001
5.264714e+002,3.459658e+001
5.283999e+002,3.518981e+001
5.303284e+002,3.569451e+001
5.322568e+002,3.609621e+001
5.341853e+002,3.639236e+001
5.361138e+002,3.658970e+001
5.380422e+002,3.670025e+001
5.399707e+002,3.673715e+001
5.418992e+002,3.671241e+001
5.438276e+002,3.663945e+001
5.457561e+002,3.653443e+001
5.476846e+002,3.641947e+001
5.496130e+002,3.632440e+001
5.515415e+002,3.628050e+001
5.534700e+002,3.631753e+001
5.553984e+002,3.645657e+001
5.573269e+002,3.670411e+001
5.592554e+002,3.705198e+001
5.611838e+002,3.747842e+001
5.631123e+002,3.795446e+001
5.650408e+002,3.844556e+001
5.669692e+002,3.891912e+001
5.688977e+002,3.934895e+001
5.708262e+002,3.971643e+001
5.727546e+002,4.001499e+001
5.746831e+002,4.025014e+001
5.766116e+002,4.043899e+001
5.785400e+002,4.060492e+001
5.804685e+002,4.077448e+001
5.823970e+002,4.097114e+001
5.843254e+002,4.120871e+001
5.862539e+002,4.149028e+001
5.881824e+002,4.180688e+001
5.901108e+002,4.214117e+001
5.920393e+002,4.246963e+001
5.939678e+002,4.276899e+001
5.958962e+002,4.302052e+001
5.978247e+002,4.321176e+001
5.997532e+002,4.334032e+001
6.016816e+002,4.341403e+001
6.036101e+002,4.345135e+001
6.055386e+002,4.347681e+001
6.074670e+002,4.351886e+001
6.093955e+002,4.360347e+001
6.113240e+002,4.374676e+001
6.132524e+002,4.395293e+001
6.151809e+002,4.421224e+001
6.171094e+002,4.450537e+001
6.190378e+002,4.480766e+001
6.209663e+002,4.509763e+001
6.228948e+002,4.536155e+001
6.248232e+002,4.559358e+001
6.267517e+002,4.579448e+001
6.286802e+002,4.596722e+001
6.306086e+002,4.611329e+001
6.325371e+002,4.623108e+001
6.344656e+002,4.631617e+001
6.363940e+002,4.636301e+001
6.383225e+002,4.636692e+001
6.402510e+002,4.632341e+001
6.421794e+002,4.622755e+001
6.441079e+002,4.607304e+001
6.460364e+002,4.585221e+001
6.479648e+002,4.555999e+001
6.498933e+002,4.519861e+001
6.518218e+002,4.478319e+001
6.537502e+002,4.434206e+001
6.556787e+002,4.391685e+001
6.576072e+002,4.355921e+001
6.595356e+002,4.331888e+001
6.614641e+002,4.324173e+001
6.633926e+002,4.335794e+001
6.653210e+002,4.367310e+001
6.672495e+002,4.416317e+001
6.691780e+002,4.477752e+001
6.711064e+002,4.545342e+001
6.730349e+002,4.612708e+001
6.749634e+002,4.675135e+001
6.768918e+002,4.729780e+001
6.788203e+002,4.775175e+001
6.807488e+002,4.810884e+001
6.826772e+002,4.836901e+001
6.846057e+002,4.853537e+001
6.865342e+002,4.861459e+001
6.884626e+002,4.861828e+001
6.903911e+002,4.856277e+001
6.923196e+002,4.846621e+001
6.942480e+002,4.834872e+001
6.961765e+002,4.822915e+001
6.981050e+002,4.812411e+001
7.000334e+002,4.804978e+001
7.019619e+002,4.801980e+001
7.038904e+002,4.804536e+001
7.058188e+002,4.813472e+001
7.077473e+002,4.829113e+001
7.096758e+002,4.851320e+001
7.116042e+002,4.879459e+001
7.135327e+002,4.912568e+001
7.154612e+002,4.949313e+001
7.173896e+002,4.988144e+001
7.193181e+002,5.027481e+001
7.212466e+002,5.065623e+001
7.231750e+002,5.101011e+001
7.251035e+002,5.132341e+001
7.270320e+002,5.158559e+001
7.289604e+002,5.179079e+001
7.308889e+002,5.193730e+001
7.328174e+002,5.202779e+001
7.347458e+002,5.206796e+001
7.366743e+002,5.206566e+001
7.386028e+002,5.202931e+001
7.405313e+002,5.196622e+001
7.424597e+002,5.188296e+001
7.443882e+002,5.178499e+001
7.463167e+002,5.167658e+001
7.482451e+002,5.156120e+001
7.501736e+002,5.144069e+001
7.521021e+002,5.131480e+001
7.540305e+002,5.118068e+001
7.559590e+002,5.103395e+001
7.578875e+002,5.086983e+001
7.598159e+002,5.068457e+001
7.617444e+002,5.047695e+001
7.636729e+002,5.024816e+001
7.656013e+002,5.000089e+001
7.675298e+002,4.973743e+001
7.694582e+002,4.945831e+001
7.713867e+002,4.916138e+001
7.733151e+002,4.884264e+001
7.752436e+002,4.849717e+001
7.771721e+002,4.812123e+001
7.791005e+002,4.771378e+001
7.810290e+002,4.727760e+001
7.829575e+002,4.681914e+001
7.848859e+002,4.634920e+001
7.868144e+002,4.588356e+001
7.887429e+002,4.544099e+001
7.906713e+002,4.504462e+001
7.925998e+002,4.471902e+001
7.945283e+002,4.448487e+001
7.964567e+002,4.435649e+001
7.983852e+002,4.433581e+001
8.003137e+002,4.441133e+001
8.022421e+002,4.455750e+001
8.041706e+002,4.474107e+001
8.060991e+002,4.492700e+001
8.080275e+002,4.508181e+001
8.099560e+002,4.518127e+001
8.118845e+002,4.520933e+001
8.138129e+002,4.515814e+001
8.157414e+002,4.502692e+001
8.176699e+002,4.482033e+001
8.195983e+002,4.454815e+001
8.215268e+002,4.422413e+001
8.234553e+002,4.386712e+001
8.253837e+002,4.349832e+001
8.273122e+002,4.313773e+001
8.292407e+002,4.280256e+001
8.311691e+002,4.250205e+001
8.330976e+002,4.223630e+001
8.350261e+002,4.199612e+001
8.369545e+002,4.176599e+001
8.388830e+002,4.152699e+001
8.408115e+002,4.126173e+001
8.427399e+002,4.096033e+001
8.446684e+002,4.062321e+001
8.465969e+002,4.026394e+001
8.485253e+002,3.990671e+001
8.504538e+002,3.958577e+001
8.523823e+002,3.933665e+001
8.543107e+002,3.918785e+001
8.562392e+002,3.915550e+001
8.581677e+002,3.923616e+001
8.600961e+002,3.940662e+001
8.620246e+002,3.962551e+001
8.639531e+002,3.984519e+001
8.658815e+002,4.001674e+001
8.678100e+002,4.009918e+001
8.697385e+002,4.006802e+001
8.716669e+002,3.991365e+001
8.735954e+002,3.964133e+001
8.755239e+002,3.926579e+001
8.774523e+002,3.880793e+001
8.793808e+002,3.828947e+001
8.813093e+002,3.773048e+001
8.832377e+002,3.715012e+001
8.851662e+002,3.656416e+001
8.870947e+002,3.598583e+001
8.890231e+002,3.542541e+001
8.909516e+002,3.488890e+001
8.928801e+002,3.437902e+001
8.948085e+002,3.389560e+001
8.967370e+002,3.343661e+001
8.986655e+002,3.299874e+001
9.005939e+002,3.257744e+001
9.025224e+002,3.216652e+001
9.044509e+002,3.175657e+001
9.063793e+002,3.133543e+001
9.083078e+002,3.088916e+001
9.102363e+002,3.040296e+001
9.121647e+002,2.986505e+001
9.140932e+002,2.926823e+001
9.160217e+002,2.861120e+001
9.179501e+002,2.789845e+001
9.198786e+002,2.713910e+001
9.218071e+002,2.634525e+001
9.237355e+002,2.552942e+001
9.256640e+002,2.470502e+001
9.275925e+002,2.388503e+001
9.295209e+002,2.308122e+001
9.314494e+002,2.230502e+001
9.333779e+002,2.156577e+001
9.353063e+002,2.087053e+001
9.372348e+002,2.022479e+001
9.391633e+002,1.963243e+001
9.410917e+002,1.909708e+001
9.430202e+002,1.862270e+001
9.449487e+002,1.821276e+001
9.468771e+002,1.786979e+001
9.488056e+002,1.759388e+001
9.507341e+002,1.738238e+001
9.526625e+002,1.723044e+001
9.545910e+002,1.713272e+001
9.565195e+002,1.708524e+001
9.584479e+002,1.708579e+001
9.603764e+002,1.713345e+001
9.623049e+002,1.722663e+001
9.642333e+002,1.736096e+001
9.661618e+002,1.752899e+001
9.680903e+002,1.772071e+001
9.700187e+002,1.792592e+001
9.719472e+002,1.813776e+001
9.738757e+002,1.835332e+001
9.758041e+002,1.857328e+001
9.777326e+002,1.879902e+001
9.796611e+002,1.902911e+001
9.815895e+002,1.925686e+001
9.835180e+002,1.947100e+001
9.854465e+002,1.965755e+001
9.873749e+002,1.980583e+001
9.893034e+002,1.991241e+001
9.912319e+002,1.998368e+001
9.931603e+002,2.003402e+001
9.950888e+002,2.008292e+001
9.970173e+002,2.014956e+001
9.989457e+002,2.024681e+001
1.000874e+003,2.038028e+001
1.002803e+003,2.054761e+001
1.004731e+003,2.074118e+001
1.006660e+003,2.094968e+001
1.008588e+003,2.116092e+001
1.010517e+003,2.136315e+001
1.012445e+003,2.154479e+001
1.014373e+003,2.169696e+001
1.016302e+003,2.181534e+001
1.018230e+003,2.190370e+001
1.020159e+003,2.197546e+001
1.022087e+003,2.205500e+001
1.024016e+003,2.217425e+001
1.025944e+003,2.236287e+001
1.027873e+003,2.264263e+001
1.029801e+003,2.301725e+001
1.031730e+003,2.346971e+001
1.033658e+003,2.396175e+001
1.035587e+003,2.444372e+001
1.037515e+003,2.486712e+001
1.039444e+003,2.519408e+001
1.041372e+003,2.541236e+001
1.043301e+003,2.553963e+001
1.045229e+003,2.562524e+001
1.047157e+003,2.573695e+001
1.049086e+003,2.595478e+001
1.051014e+003,2.635431e+001
1.052943e+003,2.698807e+001
1.054871e+003,2.788185e+001
1.056800e+003,2.902668e+001
1.058728e+003,3.038462e+001
1.060657e+003,3.189242e+001
1.062585e+003,3.347826e+001
1.064514e+003,3.507408e+001
1.066442e+003,3.662048e+001
1.068371e+003,3.807880e+001
1.070299e+003,3.942828e+001
1.072228e+003,4.066302e+001
1.074156e+003,4.178607e+001
1.076084e+003,4.280309e+001
1.078013e+003,4.371740e+001
1.079941e+003,4.452808e+001
1.081870e+003,4.523056e+001
1.083798e+003,4.581911e+001
1.085727e+003,4.628967e+001
1.087655e+003,4.664109e+001
1.089584e+003,4.687597e+001
1.091512e+003,4.700006e+001
1.093441e+003,4.702246e+001
1.095369e+003,4.695524e+001
1.097298e+003,4.681585e+001
1.099226e+003,4.662931e+001
1.101155e+003,4.642595e+001
1.103083e+003,4.624295e+001
1.105011e+003,4.611872e+001
1.106940e+003,4.608453e+001
1.108868e+003,4.616289e+001
1.110797e+003,4.636129e+001
1.112725e+003,4.667304e+001
1.114654e+003,4.708014e+001
1.116582e+003,4.755997e+001
1.118511e+003,4.809077e+001
1.120439e+003,4.865470e+001
1.122368e+003,4.924024e+001
1.124296e+003,4.983860e+001
1.126225e+003,5.043946e+001
1.128153e+003,5.102838e+001
1.130082e+003,5.158317e+001
1.132010e+003,5.207607e+001
1.133938e+003,5.247980e+001
1.135867e+003,5.276941e+001
1.137795e+003,5.292957e+001
1.139724e+003,5.295684e+001
1.141652e+003,5.285980e+001
1.143581e+003,5.265749e+001
1.145509e+003,5.237753e+001
1.147438e+003,5.205631e+001
1.149366e+003,5.173362e+001
1.151295e+003,5.145503e+001
1.153223e+003,5.126936e+001
1.155151e+003,5.122037e+001
1.157080e+003,5.134628e+001
1.159008e+003,5.166993e+001
1.160937e+003,5.219300e+001
1.162865e+003,5.289368e+001
1.164794e+003,5.372908e+001
1.166722e+003,5.464392e+001
1.168651e+003,5.557541e+001
1.170579e+003,5.646999e+001
1.172508e+003,5.728789e+001
1.174436e+003,5.800613e+001
1.176365e+003,5.861964e+001
1.178293e+003,5.913567e+001
1.180222e+003,5.956831e+001
1.182150e+003,5.993184e+001
1.184078e+003,6.023896e+001
1.186007e+003,6.049916e+001
1.187935e+003,6.071969e+001
1.189864e+003,6.090889e+001
1.191792e+003,6.107725e+001
1.193721e+003,6.123802e+001
1.195649e+003,6.140745e+001
1.197578e+003,6.160109e+001
1.199506e+003,6.183215e+001
1.201435e+003,6.210934e+001
1.203363e+003,6.243465e+001
1.205292e+003,6.280329e+001
1.207220e+003,6.320407e+001
1.209149e+003,6.362225e+001
1.211077e+003,6.404006e+001
1.213005e+003,6.444053e+001
1.214934e+003,6.481049e+001
1.216862e+003,6.514111e+001
1.218791e+003,6.542998e+001
1.220719e+003,6.568049e+001
1.222648e+003,6.590122e+001
1.224576e+003,6.610310e+001
1.226505e+003,6.629795e+001
1.228433e+003,6.649668e+001
1.230362e+003,6.670705e+001
1.232290e+003,6.693398e+001
1.234219e+003,6.717934e+001
1.236147e+003,6.744258e+001
1.238076e+003,6.772127e+001
1.240004e+003,6.801180e+001
1.241932e+003,6.831020e+001
1.243861e+003,6.861211e+001
1.245789e+003,6.891408e+001
1.247718e+003,6.921384e+001
1.249646e+003,6.951079e+001
1.251575e+003,6.980615e+001
1.253503e+003,7.010233e+001
1.255432e+003,7.040183e+001
1.257360e+003,7.070560e+001
1.259289e+003,7.101195e+001
1.261217e+003,7.131590e+001
1.263146e+003,7.161055e+001
1.265074e+003,7.188870e+001
1.267003e+003,7.214607e+001
1.268931e+003,7.238291e+001
1.270859e+003,7.260526e+001
1.272788e+003,7.282330e+001
1.274716e+003,7.304939e+001
1.276645e+003,7.329566e+001
1.278573e+003,7.356998e+001
1.280502e+003,7.387437e+001
1.282430e+003,7.420333e+001
1.284359e+003,7.454530e+001
1.286287e+003,7.488301e+001
1.288216e+003,7.519679e+001
1.290144e+003,7.546851e+001
1.292073e+003,7.568181e+001
1.294001e+003,7.582510e+001
1.295930e+003,7.589225e+001
1.297858e+003,7.588233e+001
1.299786e+003,7.580021e+001
1.301715e+003,7.565680e+001
1.303643e+003,7.547037e+001
1.305572e+003,7.526426e+001
1.307500e+003,7.506773e+001
1.309429e+003,7.491267e+001
1.311357e+003,7.482628e+001
1.313286e+003,7.482825e+001
1.315214e+003,7.492347e+001
1.317143e+003,7.510040e+001
1.319071e+003,7.533161e+001
1.321000e+003,7.558145e+001
1.322928e+003,7.581583e+001
1.324857e+003,7.600847e+001
1.326785e+003,7.614947e+001
1.328714e+003,7.624521e+001
1.330642e+003,7.631624e+001
1.332570e+003,7.638830e+001
1.334499e+003,7.648619e+001
1.336427e+003,7.662466e+001
1.338356e+003,7.680326e+001
1.340284e+003,7.700657e+001
1.342213e+003,7.720976e+001
1.344141e+003,7.738830e+001
1.346070e+003,7.752279e+001
1.347998e+003,7.760483e+001
1.349927e+003,7.763601e+001
1.351855e+003,7.762544e+001
1.353784e+003,7.758525e+001
1.355712e+003,7.752822e+001
1.357641e+003,7.746630e+001
1.359569e+003,7.740916e+001
1.361497e+003,7.736613e+001
1.363426e+003,7.734686e+001
1.365354e+003,7.736095e+001
1.367283e+003,7.741855e+001
1.369211e+003,7.752748e+001
1.371140e+003,7.769098e+001
1.373068e+003,7.790575e+001
1.374997e+003,7.816121e+001
1.376925e+003,7.844087e+001
1.378854e+003,7.872342e+001
1.380782e+003,7.898857e+001
1.382711e+003,7.921816e+001
1.384639e+003,7.939873e+001
1.386568e+003,7.952348e+001
1.388496e+003,7.959174e+001
1.390424e+003,7.960908e+001
1.392353e+003,7.958555e+001
1.394281e+003,7.953533e+001
1.396210e+003,7.947334e+001
1.398138e+003,7.941192e+001
1.400067e+003,7.935949e+001
1.401995e+003,7.931844e+001
1.403924e+003,7.928564e+001
1.405852e+003,7.925316e+001
1.407781e+003,7.921073e+001
1.409709e+003,7.914651e+001
1.411638e+003,7.904947e+001
1.413566e+003,7.891286e+001
1.415495e+003,7.873766e+001
1.417423e+003,7.853603e+001
1.419351e+003,7.832962e+001
1.421280e+003,7.814760e+001
1.423208e+003,7.801714e+001
1.425137e+003,7.795659e+001
1.427065e+003,7.797379e+001
1.428994e+003,7.806479e+001
1.430922e+003,7.821619e+001
1.432851e+003,7.840615e+001
1.434779e+003,7.860982e+001
1.436708e+003,7.880197e+001
1.438636e+003,7.896264e+001
1.440565e+003,7.908196e+001
1.442493e+003,7.915881e+001
1.444422e+003,7.919895e+001
1.446350e+003,7.921107e+001
1.448278e+003,7.920569e+001
1.450207e+003,7.919347e+001
1.452135e+003,7.918477e+001
1.454064e+003,7.918907e+001
1.455992e+003,7.921136e+001
1.457921e+003,7.925021e+001
1.459849e+003,7.929724e+001
1.461778e+003,7.934103e+001
1.463706e+003,7.937019e+001
1.465635e+003,7.937711e+001
1.467563e+003,7.936035e+001
1.469492e+003,7.932531e+001
1.471420e+003,7.928380e+001
1.473349e+003,7.925027e+001
1.475277e+003,7.923910e+001
1.477205e+003,7.925977e+001
1.479134e+003,7.931627e+001
1.481062e+003,7.940903e+001
1.482991e+003,7.953679e+001
1.484919e+003,7.969725e+001
1.486848e+003,7.988585e+001
1.488776e+003,8.009510e+001
1.490705e+003,8.031302e+001
1.492633e+003,8.052505e+001
1.494562e+003,8.071848e+001
1.496490e+003,8.088380e+001
1.498419e+003,8.101653e+001
1.500347e+003,8.111591e+001
1.502276e+003,8.118328e+001
1.504204e+003,8.122105e+001
1.506132e+003,8.123248e+001
1.508061e+003,8.122234e+001
1.509989e+003,8.119560e+001
1.511918e+003,8.115691e+001
1.513846e+003,8.110946e+001
1.515775e+003,8.105457e+001
1.517703e+003,8.099304e+001
1.519632e+003,8.092627e+001
1.521560e+003,8.085717e+001
1.523489e+003,8.079020e+001
1.525417e+003,8.072931e+001
1.527346e+003,8.067628e+001
1.529274e+003,8.062981e+001
1.531203e+003,8.058563e+001
1.533131e+003,8.053749e+001
1.535059e+003,8.047862e+001
1.536988e+003,8.040498e+001
1.538916e+003,8.031819e+001
1.540845e+003,8.022683e+001
1.542773e+003,8.014187e+001
1.544702e+003,8.007096e+001
1.546630e+003,8.001466e+001
1.548559e+003,7.996768e+001
1.550487e+003,7.992142e+001
1.552416e+003,7.986722e+001
1.554344e+003,7.979933e+001
1.556273e+003,7.971729e+001
1.558201e+003,7.962693e+001
1.560130e+003,7.953724e+001
1.562058e+003,7.945506e+001
1.563986e+003,7.938138e+001
1.565915e+003,7.931196e+001
1.567843e+003,7.924000e+001
1.569772e+003,7.915983e+001
1.571700e+003,7.906870e+001
1.573629e+003,7.896820e+001
1.575557e+003,7.886285e+001
1.577486e+003,7.875810e+001
1.579414e+003,7.865700e+001
1.581343e+003,7.855910e+001
1.583271e+003,7.846100e+001
1.585200e+003,7.835804e+001
1.587128e+003,7.824606e+001
1.589057e+003,7.812247e+001
1.590985e+003,7.798679e+001
1.592913e+003,7.784014e+001
1.594842e+003,7.768457e+001
1.596770e+003,7.752207e+001
1.598699e+003,7.735461e+001
1.600627e+003,7.718389e+001
1.602556e+003,7.701128e+001
1.604484e+003,7.683766e+001
1.606413e+003,7.666272e+001
1.608341e+003,7.648474e+001
1.610270e+003,7.630122e+001
1.612198e+003,7.611030e+001
1.614127e+003,7.591287e+001
1.616055e+003,7.571411e+001
1.617984e+003,7.552264e+001
1.619912e+003,7.534825e+001
1.621840e+003,7.519805e+001
1.623769e+003,7.507412e+001
1.625697e+003,7.497410e+001
1.627626e+003,7.489374e+001
1.629554e+003,7.482962e+001
1.631483e+003,7.478047e+001
1.633411e+003,7.474696e+001
1.635340e+003,7.472980e+001
1.637268e+003,7.472797e+001
1.639197e+003,7.473819e+001
1.641125e+003,7.475568e+001
1.643054e+003,7.477586e+001
1.644982e+003,7.479646e+001
1.646911e+003,7.481799e+001
1.648839e+003,7.484331e+001
1.650767e+003,7.487515e+001
1.652696e+003,7.491422e+001
1.654624e+003,7.495808e+001
1.656553e+003,7.500312e+001
1.658481e+003,7.504646e+001
1.660410e+003,7.508741e+001
1.662338e+003,7.512733e+001
1.664267e+003,7.516853e+001
1.666195e+003,7.521307e+001
1.668124e+003,7.526165e+001
1.670052e+003,7.531275e+001
1.671981e+003,7.536349e+001
1.673909e+003,7.541053e+001
1.675838e+003,7.545162e+001
1.677766e+003,7.548634e+001
1.679694e+003,7.551595e+001
1.681623e+003,7.554268e+001
1.683551e+003,7.556851e+001
1.685480e+003,7.559478e+001
1.687408e+003,7.562195e+001
1.689337e+003,7.564997e+001
1.691265e+003,7.567908e+001
1.693194e+003,7.571002e+001
1.695122e+003,7.574393e+001
1.697051e+003,7.578185e+001
1.698979e+003,7.582410e+001
1.700908e+003,7.587012e+001
1.702836e+003,7.591908e+001
1.704765e+003,7.597072e+001
1.706693e+003,7.602599e+001
1.708621e+003,7.608652e+001
1.710550e+003,7.615387e+001
1.712478e+003,7.622840e+001
1.714407e+003,7.630853e+001
1.716335e+003,7.639111e+001
1.718264e+003,7.647242e+001
1.720192e+003,7.655040e+001
1.722121e+003,7.662541e+001
1.724049e+003,7.669979e+001
1.725978e+003,7.677663e+001
1.727906e+003,7.685849e+001
1.729835e+003,7.694667e+001
1.731763e+003,7.704082e+001
1.733692e+003,7.713940e+001
1.735620e+003,7.724088e+001
1.737548e+003,7.734459e+001
1.739477e+003,7.745123e+001
1.741405e+003,7.756192e+001
1.743334e+003,7.767729e+001
1.745262e+003,7.779664e+001
1.747191e+003,7.791811e+001
1.749119e+003,7.803926e+001
1.751048e+003,7.815815e+001
1.752976e+003,7.827390e+001
1.754905e+003,7.838648e+001
1.756833e+003,7.849612e+001
1.758762e+003,7.860267e+001
1.760690e+003,7.870564e+001
1.762619e+003,7.880485e+001
1.764547e+003,7.890151e+001
1.766475e+003,7.899866e+001
1.768404e+003,7.910043e+001
1.770332e+003,7.921050e+001
1.772261e+003,7.932999e+001
1.774189e+003,7.945631e+001
1.776118e+003,7.958416e+001
1.778046e+003,7.970782e+001
1.779975e+003,7.982397e+001
1.781903e+003,7.993269e+001
1.783832e+003,8.003724e+001
1.785760e+003,8.014223e+001
1.787689e+003,8.025153e+001
1.789617e+003,8.036613e+001
1.791546e+003,8.048380e+001
1.793474e+003,8.059967e+001
1.795402e+003,8.070930e+001
1.797331e+003,8.081067e+001
1.799259e+003,8.090532e+001
1.801188e+003,8.099696e+001
1.803116e+003,8.108981e+001
1.805045e+003,8.118658e+001
1.806973e+003,8.128780e+001
1.808902e+003,8.139211e+001
1.810830e+003,8.149741e+001
1.812759e+003,8.160226e+001
1.814687e+003,8.170596e+001
1.816616e+003,8.180846e+001
1.818544e+003,8.190952e+001
1.820473e+003,8.200803e+001
1.822401e+003,8.210226e+001
1.824329e+003,8.219093e+001
1.826258e+003,8.227457e+001
1.828186e+003,8.235563e+001
1.830115e+003,8.243788e+001
1.832043e+003,8.252433e+001
1.833972e+003,8.261530e+001
1.835900e+003,8.270840e+001
1.837829e+003,8.279960e+001
1.839757e+003,8.288554e+001
1.841686e+003,8.296571e+001
1.843614e+003,8.304306e+001
1.845543e+003,8.312292e+001
1.847471e+003,8.321050e+001
1.849400e+003,8.330747e+001
1.851328e+003,8.341129e+001
1.853256e+003,8.351621e+001
1.855185e+003,8.361643e+001
1.857113e+003,8.370789e+001
1.859042e+003,8.379005e+001
1.860970e+003,8.386529e+001
1.862899e+003,8.393752e+001
1.864827e+003,8.400996e+001
1.866756e+003,8.408373e+001
1.868684e+003,8.415853e+001
1.870613e+003,8.423384e+001
1.872541e+003,8.431041e+001
1.874470e+003,8.439036e+001
1.876398e+003,8.447564e+001
1.878327e+003,8.456609e+001
1.880255e+003,8.465814e+001
1.882183e+003,8.474592e+001
1.884112e+003,8.482312e+001
1.886040e+003,8.488712e+001
1.887969e+003,8.494144e+001
1.889897e+003,8.499583e+001
1.891826e+003,8.506252e+001
1.893754e+003,8.515038e+001
1.895683e+003,8.526122e+001
1.897611e+003,8.538839e+001
1.899540e+003,8.551936e+001
1.901468e+003,8.563998e+001
1.903396e+003,8.574069e+001
1.905325e+003,8.581803e+001
1.907253e+003,8.587478e+001
1.909182e+003,8.591659e+001
1.911110e+003,8.594922e+001
1.913039e+003,8.597655e+001
1.914967e+003,8.600140e+001
1.916896e+003,8.602840e+001
1.918824e+003,8.606530e+001
1.920753e+003,8.612207e+001
1.922681e+003,8.620792e+001
1.924610e+003,8.632608e+001
1.926538e+003,8.647120e+001
1.928467e+003,8.662929e+001
1.930395e+003,8.678368e+001
1.932323e+003,8.691974e+001
1.934252e+003,8.703130e+001
1.936180e+003,8.712250e+001
1.938109e+003,8.720586e+001
1.940037e+003,8.729541e+001
1.941966e+003,8.740008e+001
1.943894e+003,8.752095e+001
1.945823e+003,8.765228e+001
1.947751e+003,8.778691e+001
1.949680e+003,8.792160e+001
1.951608e+003,8.805902e+001
1.953537e+003,8.820516e+001
1.955465e+003,8.836400e+001
1.957394e+003,8.853281e+001
1.959322e+003,8.870126e+001
1.961250e+003,8.885622e+001
1.963179e+003,8.898987e+001
1.965107e+003,8.910486e+001
1.967036e+003,8.921358e+001
1.968964e+003,8.932831e+001
1.970893e+003,8.945075e+001
1.972821e+003,8.956521e+001
1.974750e+003,8.964432e+001
1.976678e+003,8.966148e+001
1.978607e+003,8.960846e+001
1.980535e+003,8.950009e+001
1.982464e+003,8.936881e+001
1.984392e+003,8.924757e+001
1.986321e+003,8.916074e+001
1.988249e+003,8.911608e+001
1.990177e+003,8.910808e+001
1.992106e+003,8.912543e+001
1.994034e+003,8.916093e+001
1.995963e+003,8.921625e+001
1.997891e+003,8.930109e+001
1.999820e+003,8.942514e+001
2.001748e+003,8.958909e+001
2.003677e+003,8.977656e+001
2.005605e+003,8.995735e+001
2.007534e+003,9.009415e+001
2.009462e+003,9.015862e+001
2.011391e+003,9.014492e+001
2.013319e+003,9.007225e+001
2.015248e+003,8.997560e+001
2.017176e+003,8.988840e+001
2.019104e+003,8.983298e+001
2.021033e+003,8.981313e+001
2.022961e+003,8.981882e+001
2.024890e+003,8.983420e+001
2.026818e+003,8.984761e+001
2.028747e+003,8.985502e+001
2.030675e+003,8.985760e+001
2.032604e+003,8.985613e+001
2.034532e+003,8.984673e+001
2.036461e+003,8.981990e+001
2.038389e+003,8.976566e+001
2.040318e+003,8.967754e+001
2.042246e+003,8.955615e+001
2.044175e+003,8.940810e+001
2.046103e+003,8.924268e+001
2.048031e+003,8.906864e+001
2.049960e+003,8.889264e+001
2.051888e+003,8.872072e+001
2.053817e+003,8.855908e+001
2.055745e+003,8.841444e+001
2.057674e+003,8.829343e+001
2.059602e+003,8.819923e+001
2.061531e+003,8.813022e+001
2.063459e+003,8.807901e+001
2.065388e+003,8.803558e+001
2.067316e+003,8.798965e+001
2.069245e+003,8.793576e+001
2.071173e+003,8.787482e+001
2.073102e+003,8.781268e+001
2.075030e+003,8.775606e+001
2.076958e+003,8.770884e+001
2.078887e+003,8.766939e+001
2.080815e+003,8.763181e+001
2.082744e+003,8.758836e+001
2.084672e+003,8.753354e+001
2.086601e+003,8.746661e+001
2.088529e+003,8.739238e+001
2.090458e+003,8.731887e+001
2.092386e+003,8.725351e+001
2.094315e+003,8.720103e+001
2.096243e+003,8.716127e+001
2.098172e+003,8.713017e+001
2.100100e+003,8.710194e+001
2.102029e+003,8.707212e+001
2.103957e+003,8.703909e+001
2.105885e+003,8.700385e+001
2.107814e+003,8.696897e+001
2.109742e+003,8.693705e+001
2.111671e+003,8.691021e+001
2.113599e+003,8.688988e+001
2.115528e+003,8.687759e+001
2.117456e+003,8.687488e+001
2.119385e+003,8.688325e+001
2.121313e+003,8.690296e+001
2.123242e+003,8.693260e+001
2.125170e+003,8.696930e+001
2.127099e+003,8.700932e+001
2.129027e+003,8.705061e+001
2.130956e+003,8.709464e+001
2.132884e+003,8.714719e+001
2.134813e+003,8.721693e+001
2.136741e+003,8.731255e+001
2.138669e+003,8.743948e+001
2.140598e+003,8.759797e+001
2.142526e+003,8.778449e+001
2.144455e+003,8.799539e+001
2.146383e+003,8.823042e+001
2.148312e+003,8.849273e+001
2.150240e+003,8.878394e+001
2.152169e+003,8.909548e+001
2.154097e+003,8.939987e+001
2.156026e+003,8.965282e+001
2.157954e+003,8.980576e+001
2.159883e+003,8.982813e+001
2.161811e+003,8.972576e+001
2.163740e+003,8.953917e+001
2.165668e+003,8.932624e+001
2.167596e+003,8.913528e+001
2.169525e+003,8.899548e+001
2.171453e+003,8.891084e+001
2.173382e+003,8.886614e+001
2.175310e+003,8.883654e+001
2.177239e+003,8.879910e+001
2.179167e+003,8.874070e+001
2.181096e+003,8.865816e+001
2.183024e+003,8.855518e+001
2.184953e+003,8.843645e+001
2.186881e+003,8.830323e+001
2.188810e+003,8.815393e+001
2.190738e+003,8.798771e+001
2.192667e+003,8.780837e+001
2.194595e+003,8.762580e+001
2.196523e+003,8.745499e+001
2.198452e+003,8.731075e+001
2.200380e+003,8.720225e+001
2.202309e+003,8.713099e+001
2.204237e+003,8.709037e+001
2.206166e+003,8.706910e+001
2.208094e+003,8.705497e+001
2.210023e+003,8.703899e+001
2.211951e+003,8.701568e+001
2.213880e+003,8.698210e+001
2.215808e+003,8.693622e+001
2.217737e+003,8.687589e+001
2.219665e+003,8.679936e+001
2.221594e+003,8.670764e+001
2.223522e+003,8.660511e+001
2.225450e+003,8.649957e+001
2.227379e+003,8.639950e+001
2.229307e+003,8.631165e+001
2.231236e+003,8.623805e+001
2.233164e+003,8.617593e+001
2.235093e+003,8.611945e+001
2.237021e+003,8.606327e+001
2.238950e+003,8.600533e+001
2.240878e+003,8.594759e+001
2.242807e+003,8.589462e+001
2.244735e+003,8.585091e+001
2.246664e+003,8.581787e+001
2.248592e+003,8.579248e+001
2.250521e+003,8.576822e+001
2.252449e+003,8.573775e+001
2.254377e+003,8.569616e+001
2.256306e+003,8.564208e+001
2.258234e+003,8.557810e+001
2.260163e+003,8.550869e+001
2.262091e+003,8.543830e+001
2.264020e+003,8.536932e+001
2.265948e+003,8.530228e+001
2.267877e+003,8.523643e+001
2.269805e+003,8.517142e+001
2.271734e+003,8.510751e+001
2.273662e+003,8.504554e+001
2.275591e+003,8.498586e+001
2.277519e+003,8.492739e+001
2.279448e+003,8.486746e+001
2.281376e+003,8.480322e+001
2.283304e+003,8.473261e+001
2.285233e+003,8.465602e+001
2.287161e+003,8.457630e+001
2.289090e+003,8.449842e+001
2.291018e+003,8.442709e+001
2.292947e+003,8.436600e+001
2.294875e+003,8.431641e+001
2.296804e+003,8.427708e+001
2.298732e+003,8.424529e+001
2.300661e+003,8.421780e+001
2.302589e+003,8.419214e+001
2.304518e+003,8.416682e+001
2.306446e+003,8.414139e+001
2.308375e+003,8.411559e+001
2.310303e+003,8.408899e+001
2.312231e+003,8.406065e+001
2.314160e+003,8.402954e+001
2.316088e+003,8.399512e+001
2.318017e+003,8.395797e+001
2.319945e+003,8.391979e+001
2.321874e+003,8.388306e+001
2.323802e+003,8.384978e+001
2.325731e+003,8.382128e+001
2.327659e+003,8.379754e+001
2.329588e+003,8.377782e+001
2.331516e+003,8.376115e+001
2.333445e+003,8.374717e+001
2.335373e+003,8.373667e+001
2.337302e+003,8.373134e+001
2.339230e+003,8.373289e+001
2.341158e+003,8.374249e+001
2.343087e+003,8.376011e+001
2.345015e+003,8.378488e+001
2.346944e+003,8.381543e+001
2.348872e+003,8.385020e+001
2.350801e+003,8.388785e+001
2.352729e+003,8.392678e+001
2.354658e+003,8.396510e+001
2.356586e+003,8.400091e+001
2.358515e+003,8.403281e+001
2.360443e+003,8.406079e+001
2.362372e+003,8.408672e+001
2.364300e+003,8.411414e+001
2.366229e+003,8.414621e+001
2.368157e+003,8.418471e+001
2.370085e+003,8.422961e+001
2.372014e+003,8.427937e+001
2.373942e+003,8.433193e+001
2.375871e+003,8.438563e+001
2.377799e+003,8.443972e+001
2.379728e+003,8.449411e+001
2.381656e+003,8.454935e+001
2.383585e+003,8.460607e+001
2.385513e+003,8.466458e+001
2.387442e+003,8.472501e+001
2.389370e+003,8.478714e+001
2.391299e+003,8.485070e+001
2.393227e+003,8.491545e+001
2.395156e+003,8.498120e+001
2.397084e+003,8.504747e+001
2.399012e+003,8.511349e+001
2.400941e+003,8.517797e+001
2.402869e+003,8.523962e+001
2.404798e+003,8.529756e+001
2.406726e+003,8.535207e+001
2.408655e+003,8.540465e+001
2.410583e+003,8.545740e+001
2.412512e+003,8.551266e+001
2.414440e+003,8.557171e+001
2.416369e+003,8.563432e+001
2.418297e+003,8.569873e+001
2.420226e+003,8.576246e+001
2.422154e+003,8.582299e+001
2.424083e+003,8.587889e+001
2.426011e+003,8.593000e+001
2.427939e+003,8.597746e+001
2.429868e+003,8.602301e+001
2.431796e+003,8.606852e+001
2.433725e+003,8.611549e+001
2.435653e+003,8.616492e+001
2.437582e+003,8.621719e+001
2.439510e+003,8.627200e+001
2.441439e+003,8.632835e+001
2.443367e+003,8.638441e+001
2.445296e+003,8.643742e+001
2.447224e+003,8.648446e+001
2.449153e+003,8.652283e+001
2.451081e+003,8.655103e+001
2.453010e+003,8.656917e+001
2.454938e+003,8.657906e+001
2.456866e+003,8.658376e+001
2.458795e+003,8.658646e+001
2.460723e+003,8.659039e+001
2.462652e+003,8.659808e+001
2.464580e+003,8.661130e+001
2.466509e+003,8.663140e+001
2.468437e+003,8.665906e+001
2.470366e+003,8.669408e+001
2.472294e+003,8.673498e+001
2.474223e+003,8.677892e+001
2.476151e+003,8.682170e+001
2.478080e+003,8.685867e+001
2.480008e+003,8.688616e+001
2.481937e+003,8.690244e+001
2.483865e+003,8.690837e+001
2.485793e+003,8.690689e+001
2.487722e+003,8.690217e+001
2.489650e+003,8.689782e+001
2.491579e+003,8.689596e+001
2.493507e+003,8.689687e+001
2.495436e+003,8.689947e+001
2.497364e+003,8.690241e+001
2.499293e+003,8.690479e+001
2.501221e+003,8.690657e+001
2.503150e+003,8.690825e+001
2.505078e+003,8.691018e+001
2.507007e+003,8.691196e+001
2.508935e+003,8.691232e+001
2.510864e+003,8.690951e+001
2.512792e+003,8.690220e+001
2.514720e+003,8.688989e+001
2.516649e+003,8.687323e+001
2.518577e+003,8.685342e+001
2.520506e+003,8.683187e+001
2.522434e+003,8.680934e+001
2.524363e+003,8.678615e+001
2.526291e+003,8.676231e+001
2.528220e+003,8.673820e+001
2.530148e+003,8.671455e+001
2.532077e+003,8.669245e+001
2.534005e+003,8.667254e+001
2.535934e+003,8.665440e+001
2.537862e+003,8.663634e+001
2.539791e+003,8.661602e+001
2.541719e+003,8.659109e+001
2.543647e+003,8.656065e+001
2.545576e+003,8.652571e+001
2.547504e+003,8.648910e+001
2.549433e+003,8.645409e+001
2.551361e+003,8.642326e+001
2.553290e+003,8.639731e+001
2.555218e+003,8.637479e+001
2.557147e+003,8.635270e+001
2.559075e+003,8.632760e+001
2.561004e+003,8.629710e+001
2.562932e+003,8.626026e+001
2.564861e+003,8.621775e+001
2.566789e+003,8.617104e+001
2.568718e+003,8.612194e+001
2.570646e+003,8.607198e+001
2.572574e+003,8.602232e+001
2.574503e+003,8.597414e+001
2.576431e+003,8.592857e+001
2.578360e+003,8.588649e+001
2.580288e+003,8.584811e+001
2.582217e+003,8.581239e+001
2.584145e+003,8.577663e+001
2.586074e+003,8.573695e+001
2.588002e+003,8.568975e+001
2.589931e+003,8.563260e+001
2.591859e+003,8.556549e+001
2.593788e+003,8.549111e+001
2.595716e+003,8.541409e+001
2.597645e+003,8.533926e+001
2.599573e+003,8.527043e+001
2.601501e+003,8.520921e+001
2.603430e+003,8.515484e+001
2.605358e+003,8.510480e+001
2.607287e+003,8.505593e+001
2.609215e+003,8.500570e+001
2.611144e+003,8.495252e+001
2.613072e+003,8.489589e+001
2.615001e+003,8.483587e+001
2.616929e+003,8.477251e+001
2.618858e+003,8.470570e+001
2.620786e+003,8.463503e+001
2.622715e+003,8.456026e+001
2.624643e+003,8.448174e+001
2.626572e+003,8.440054e+001
2.628500e+003,8.431850e+001
2.630428e+003,8.423743e+001
2.632357e+003,8.415902e+001
2.634285e+003,8.408412e+001
2.636214e+003,8.401283e+001
2.638142e+003,8.394441e+001
2.640071e+003,8.387777e+001
2.641999e+003,8.381184e+001
2.643928e+003,8.374562e+001
2.645856e+003,8.367852e+001
2.647785e+003,8.361014e+001
2.649713e+003,8.354033e+001
2.651642e+003,8.346918e+001
2.653570e+003,8.339695e+001
2.655499e+003,8.332423e+001
2.657427e+003,8.325179e+001
2.659355e+003,8.318076e+001
2.661284e+003,8.311241e+001
2.663212e+003,8.304788e+001
2.665141e+003,8.298814e+001
2.667069e+003,8.293377e+001
2.668998e+003,8.288477e+001
2.670926e+003,8.284068e+001
2.672855e+003,8.280053e+001
2.674783e+003,8.276311e+001
2.676712e+003,8.272710e+001
2.678640e+003,8.269136e+001
2.680569e+003,8.265507e+001
2.682497e+003,8.261790e+001
2.684426e+003,8.257996e+001
2.686354e+003,8.254181e+001
2.688282e+003,8.250414e+001
2.690211e+003,8.246769e+001
2.692139e+003,8.243289e+001
2.694068e+003,8.239996e+001
2.695996e+003,8.236875e+001
2.697925e+003,8.233880e+001
2.699853e+003,8.230946e+001
2.701782e+003,8.228009e+001
2.703710e+003,8.224998e+001
2.705639e+003,8.221876e+001
2.707567e+003,8.218624e+001
2.709496e+003,8.215277e+001
2.711424e+003,8.211913e+001
2.713353e+003,8.208656e+001
2.715281e+003,8.205652e+001
2.717209e+003,8.203022e+001
2.719138e+003,8.200842e+001
2.721066e+003,8.199115e+001
2.722995e+003,8.197758e+001
2.724923e+003,8.196630e+001
2.726852e+003,8.195570e+001
2.728780e+003,8.194459e+001
2.730709e+003,8.193221e+001
2.732637e+003,8.191873e+001
2.734566e+003,8.190480e+001
2.736494e+003,8.189136e+001
2.738423e+003,8.187914e+001
2.740351e+003,8.186852e+001
2.742280e+003,8.185932e+001
2.744208e+003,8.185105e+001
2.746136e+003,8.184312e+001
2.748065e+003,8.183507e+001
2.749993e+003,8.182684e+001
2.751922e+003,8.181862e+001
2.753850e+003,8.181094e+001
2.755779e+003,8.180429e+001
2.757707e+003,8.179919e+001
2.759636e+003,8.179586e+001
2.761564e+003,8.179434e+001
2.763493e+003,8.179427e+001
2.765421e+003,8.179516e+001
2.767350e+003,8.179631e+001
2.769278e+003,8.179708e+001
2.771207e+003,8.179696e+001
2.773135e+003,8.179561e+001
2.775063e+003,8.179306e+001
2.776992e+003,8.178944e+001
2.778920e+003,8.178506e+001
2.780849e+003,8.178017e+001
2.782777e+003,8.177491e+001
2.784706e+003,8.176926e+001
2.786634e+003,8.176315e+001
2.788563e+003,8.175644e+001
2.790491e+003,8.174892e+001
2.792420e+003,8.174031e+001
2.794348e+003,8.173009e+001
2.796277e+003,8.171766e+001
2.798205e+003,8.170236e+001
2.800134e+003,8.168380e+001
2.802062e+003,8.166214e+001
2.803990e+003,8.163824e+001
2.805919e+003,8.161369e+001
2.807847e+003,8.159016e+001
2.809776e+003,8.156902e+001
2.811704e+003,8.155078e+001
2.813633e+003,8.153484e+001
2.815561e+003,8.151953e+001
2.817490e+003,8.150280e+001
2.819418e+003,8.148285e+001
2.821347e+003,8.145857e+001
2.823275e+003,8.142976e+001
2.825204e+003,8.139657e+001
2.827132e+003,8.135899e+001
2.829061e+003,8.131622e+001
2.830989e+003,8.126626e+001
2.832917e+003,8.120638e+001
2.834846e+003,8.113418e+001
2.836774e+003,8.104849e+001
2.838703e+003,8.095067e+001
2.840631e+003,8.084461e+001
2.842560e+003,8.073692e+001
2.844488e+003,8.063566e+001
2.846417e+003,8.054841e+001
2.848345e+003,8.048135e+001
2.850274e+003,8.043777e+001
2.852202e+003,8.041763e+001
2.854131e+003,8.041799e+001
2.856059e+003,8.043416e+001
2.857988e+003,8.046082e+001
2.859916e+003,8.049263e+001
2.861844e+003,8.052536e+001
2.863773e+003,8.055576e+001
2.865701e+003,8.058131e+001
2.867630e+003,8.060047e+001
2.869558e+003,8.061189e+001
2.871487e+003,8.061458e+001
2.873415e+003,8.060786e+001
2.875344e+003,8.059138e+001
2.877272e+003,8.056535e+001
2.879201e+003,8.053043e+001
2.881129e+003,8.048808e+001
2.883058e+003,8.044018e+001
2.884986e+003,8.038916e+001
2.886915e+003,8.033788e+001
2.888843e+003,8.028937e+001
2.890771e+003,8.024667e+001
2.892700e+003,8.021286e+001
2.894628e+003,8.019045e+001
2.896557e+003,8.018147e+001
2.898485e+003,8.018700e+001
2.900414e+003,8.020736e+001
2.902342e+003,8.024213e+001
2.904271e+003,8.029066e+001
2.906199e+003,8.035258e+001
2.908128e+003,8.042814e+001
2.910056e+003,8.051838e+001
2.911985e+003,8.062455e+001
2.913913e+003,8.074760e+001
2.915842e+003,8.088694e+001
2.917770e+003,8.103983e+001
2.919698e+003,8.120108e+001
2.921627e+003,8.136440e+001
2.923555e+003,8.152284e+001
2.925484e+003,8.167083e+001
2.927412e+003,8.180513e+001
2.929341e+003,8.192503e+001
2.931269e+003,8.203206e+001
2.933198e+003,8.212901e+001
2.935126e+003,8.221944e+001
2.937055e+003,8.230675e+001
2.938983e+003,8.239410e+001
2.940912e+003,8.248438e+001
2.942840e+003,8.257982e+001
2.944769e+003,8.268165e+001
2.946697e+003,8.278945e+001
2.948625e+003,8.290114e+001
2.950554e+003,8.301258e+001
2.952482e+003,8.311884e+001
2.954411e+003,8.321581e+001
2.956339e+003,8.330151e+001
2.958268e+003,8.337731e+001
2.960196e+003,8.344779e+001
2.962125e+003,8.351981e+001
2.964053e+003,8.359973e+001
2.965982e+003,8.369203e+001
2.967910e+003,8.379769e+001
2.969839e+003,8.391435e+001
2.971767e+003,8.403711e+001
2.973696e+003,8.416025e+001
2.975624e+003,8.427913e+001
2.977552e+003,8.439050e+001
2.979481e+003,8.449299e+001
2.981409e+003,8.458665e+001
2.983338e+003,8.467209e+001
2.985266e+003,8.474998e+001
2.987195e+003,8.482065e+001
2.989123e+003,8.488419e+001
2.991052e+003,8.494051e+001
2.992980e+003,8.498967e+001
2.994909e+003,8.503191e+001
2.996837e+003,8.506787e+001
2.998766e+003,8.509856e+001
3.000694e+003,8.512534e+001
3.002623e+003,8.514986e+001
3.004551e+003,8.517389e+001
3.006479e+003,8.519890e+001
3.008408e+003,8.522557e+001
3.010336e+003,8.525356e+001
3.012265e+003,8.528163e+001
3.014193e+003,8.530800e+001
3.016122e+003,8.533109e+001
3.018050e+003,8.535031e+001
3.019979e+003,8.536634e+001
3.021907e+003,8.538100e+001
3.023836e+003,8.539637e+001
3.025764e+003,8.541395e+001
3.027693e+003,8.543403e+001
3.029621e+003,8.545544e+001
3.031550e+003,8.547598e+001
3.033478e+003,8.549348e+001
3.035406e+003,8.550664e+001
3.037335e+003,8.551553e+001
3.039263e+003,8.552152e+001
3.041192e+003,8.552659e+001
3.043120e+003,8.553264e+001
3.045049e+003,8.554086e+001
3.046977e+003,8.555156e+001
3.048906e+003,8.556444e+001
3.050834e+003,8.557901e+001
3.052763e+003,8.559492e+001
3.054691e+003,8.561195e+001
3.056620e+003,8.562991e+001
3.058548e+003,8.564828e+001
3.060477e+003,8.566611e+001
3.062405e+003,8.568239e+001
3.064333e+003,8.569613e+001
3.066262e+003,8.570702e+001
3.068190e+003,8.571548e+001
3.070119e+003,8.572250e+001
3.072047e+003,8.572913e+001
3.073976e+003,8.573608e+001
3.075904e+003,8.574335e+001
3.077833e+003,8.575047e+001
3.079761e+003,8.575664e+001
3.081690e+003,8.576135e+001
3.083618e+003,8.576462e+001
3.085547e+003,8.576698e+001
3.087475e+003,8.576923e+001
3.089404e+003,8.577200e+001
3.091332e+003,8.577549e+001
3.093260e+003,8.577942e+001
3.095189e+003,8.578303e+001
3.097117e+003,8.578535e+001
3.099046e+003,8.578547e+001
3.100974e+003,8.578245e+001
3.102903e+003,8.577557e+001
3.104831e+003,8.576445e+001
3.106760e+003,8.574928e+001
3.108688e+003,8.573106e+001
3.110617e+003,8.571169e+001
3.112545e+003,8.569379e+001
3.114474e+003,8.568005e+001
3.116402e+003,8.567238e+001
3.118331e+003,8.567125e+001
3.120259e+003,8.567543e+001
3.122188e+003,8.568226e+001
3.124116e+003,8.568846e+001
3.126044e+003,8.569150e+001
3.127973e+003,8.568996e+001
3.129901e+003,8.568410e+001
3.131830e+003,8.567494e+001
3.133758e+003,8.566391e+001
3.135687e+003,8.565170e+001
3.137615e+003,8.563796e+001
3.139544e+003,8.562159e+001
3.141472e+003,8.560142e+001
3.143401e+003,8.557693e+001
3.145329e+003,8.554871e+001
3.147258e+003,8.551852e+001
3.149186e+003,8.548869e+001
3.151115e+003,8.546144e+001
3.153043e+003,8.543817e+001
3.154971e+003,8.541902e+001
3.156900e+003,8.540304e+001
3.158828e+003,8.538828e+001
3.160757e+003,8.537228e+001
3.162685e+003,8.535239e+001
3.164614e+003,8.532636e+001
3.166542e+003,8.529253e+001
3.168471e+003,8.525018e+001
3.170399e+003,8.519999e+001
3.172328e+003,8.514401e+001
3.174256e+003,8.508497e+001
3.176185e+003,8.502599e+001
3.178113e+003,8.496955e+001
3.180042e+003,8.491670e+001
3.181970e+003,8.486692e+001
3.183898e+003,8.481830e+001
3.185827e+003,8.476843e+001
3.187755e+003,8.471507e+001
3.189684e+003,8.465678e+001
3.191612e+003,8.459299e+001
3.193541e+003,8.452374e+001
3.195469e+003,8.444911e+001
3.197398e+003,8.436906e+001
3.199326e+003,8.428339e+001
3.201255e+003,8.419213e+001
3.203183e+003,8.409586e+001
3.205112e+003,8.399583e+001
3.207040e+003,8.389353e+001
3.208969e+003,8.379030e+001
3.210897e+003,8.368641e+001
3.212825e+003,8.358123e+001
3.214754e+003,8.347341e+001
3.216682e+003,8.336182e+001
3.218611e+003,8.324651e+001
3.220539e+003,8.312897e+001
3.222468e+003,8.301170e+001
3.224396e+003,8.289717e+001
3.226325e+003,8.278665e+001
3.228253e+003,8.267928e+001
3.230182e+003,8.257212e+001
3.232110e+003,8.246101e+001
3.234039e+003,8.234219e+001
3.235967e+003,8.221303e+001
3.237896e+003,8.207274e+001
3.239824e+003,8.192192e+001
3.241752e+003,8.176147e+001
3.243681e+003,8.159162e+001
3.245609e+003,8.141138e+001
3.247538e+003,8.121883e+001
3.249466e+003,8.101223e+001
3.251395e+003,8.079105e+001
3.253323e+003,8.055691e+001
3.255252e+003,8.031361e+001
3.257180e+003,8.006709e+001
3.259109e+003,7.982432e+001
3.261037e+003,7.959222e+001
3.262966e+003,7.937766e+001
3.264894e+003,7.918651e+001
3.266823e+003,7.902321e+001
3.268751e+003,7.889052e+001
3.270679e+003,7.878853e+001
3.272608e+003,7.871451e+001
3.274536e+003,7.866271e+001
3.276465e+003,7.862602e+001
3.278393e+003,7.859718e+001
3.280322e+003,7.857041e+001
3.282250e+003,7.854298e+001
3.284179e+003,7.851493e+001
3.286107e+003,7.848851e+001
3.288036e+003,7.846661e+001
3.289964e+003,7.845184e+001
3.291893e+003,7.844567e+001
3.293821e+003,7.844826e+001
3.295750e+003,7.845897e+001
3.297678e+003,7.847675e+001
3.299606e+003,7.850010e+001
3.301535e+003,7.852658e+001
3.303463e+003,7.855267e+001
3.305392e+003,7.857326e+001
3.307320e+003,7.858183e+001
3.309249e+003,7.857204e+001
3.311177e+003,7.853789e+001
3.313106e+003,7.847526e+001
3.315034e+003,7.838252e+001
3.316963e+003,7.826060e+001
3.318891e+003,7.811300e+001
3.320820e+003,7.794553e+001
3.322748e+003,7.776689e+001
3.324677e+003,7.758768e+001
3.326605e+003,7.742036e+001
3.328533e+003,7.727864e+001
3.330462e+003,7.717474e+001
3.332390e+003,7.711872e+001
3.334319e+003,7.711679e+001
3.336247e+003,7.717060e+001
3.338176e+003,7.727807e+001
3.340104e+003,7.743452e+001
3.342033e+003,7.763433e+001
3.343961e+003,7.787090e+001
3.345890e+003,7.813738e+001
3.347818e+003,7.842624e+001
3.349747e+003,7.872839e+001
3.351675e+003,7.903468e+001
3.353604e+003,7.933630e+001
3.355532e+003,7.962605e+001
3.357460e+003,7.989992e+001
3.359389e+003,8.015687e+001
3.361317e+003,8.039845e+001
3.363246e+003,8.062749e+001
3.365174e+003,8.084719e+001
3.367103e+003,8.106032e+001
3.369031e+003,8.126897e+001
3.370959e+003,8.147504e+001
3.372888e+003,8.168012e+001
3.374816e+003,8.188535e+001
3.376745e+003,8.209073e+001
3.378673e+003,8.229469e+001
3.380602e+003,8.249380e+001
3.382530e+003,8.268311e+001
3.384459e+003,8.285796e+001
3.386387e+003,8.301482e+001
3.388316e+003,8.315268e+001
3.390244e+003,8.327315e+001
3.392173e+003,8.338025e+001
3.394101e+003,8.347914e+001
3.396030e+003,8.357486e+001
3.397958e+003,8.367235e+001
3.399886e+003,8.377562e+001
3.401815e+003,8.388818e+001
3.403743e+003,8.401334e+001
3.405672e+003,8.415350e+001
3.407600e+003,8.430994e+001
3.409529e+003,8.448212e+001
3.411457e+003,8.466776e+001
3.413386e+003,8.486295e+001
3.415314e+003,8.506345e+001
3.417243e+003,8.526577e+001
3.419171e+003,8.546764e+001
3.421100e+003,8.566809e+001
3.423028e+003,8.586681e+001
3.424957e+003,8.606337e+001
3.426885e+003,8.625665e+001
3.428813e+003,8.644510e+001
3.430742e+003,8.662709e+001
3.432670e+003,8.680183e+001
3.434599e+003,8.696957e+001
3.436527e+003,8.713142e+001
3.438456e+003,8.728864e+001
3.440384e+003,8.744202e+001
3.442313e+003,8.759151e+001
3.444241e+003,8.773652e+001
3.446170e+003,8.787688e+001
3.448098e+003,8.801367e+001
3.450027e+003,8.814934e+001
3.451955e+003,8.828756e+001
3.453884e+003,8.843179e+001
3.455812e+003,8.858396e+001
3.457740e+003,8.874352e+001
3.459669e+003,8.890759e+001
3.461597e+003,8.907159e+001
3.463526e+003,8.923071e+001
3.465454e+003,8.938171e+001
3.467383e+003,8.952330e+001
3.469311e+003,8.965643e+001
3.471240e+003,8.978338e+001
3.473168e+003,8.990670e+001
3.475097e+003,9.002814e+001
3.477025e+003,9.014814e+001
3.478954e+003,9.026589e+001
3.480882e+003,9.037997e+001
3.482811e+003,9.048913e+001
3.484739e+003,9.059287e+001
3.486667e+003,9.069189e+001
3.488596e+003,9.078811e+001
3.490524e+003,9.088411e+001
3.492453e+003,9.098235e+001
3.494381e+003,9.108486e+001
3.496310e+003,9.119231e+001
3.498238e+003,9.130391e+001
3.500167e+003,9.141755e+001
3.502095e+003,9.153052e+001
3.504024e+003,9.164032e+001
3.505952e+003,9.174558e+001
3.507881e+003,9.184629e+001
3.509809e+003,9.194362e+001
3.511738e+003,9.203923e+001
3.513666e+003,9.213440e+001
3.515594e+003,9.222954e+001
3.517523e+003,9.232407e+001
3.519451e+003,9.241699e+001
3.521380e+003,9.250719e+001
3.523308e+003,9.259417e+001
3.525237e+003,9.267807e+001
3.527165e+003,9.275947e+001
3.529094e+003,9.283884e+001
3.531022e+003,9.291631e+001
3.532951e+003,9.299169e+001
3.534879e+003,9.306506e+001
3.536808e+003,9.313722e+001
3.538736e+003,9.321004e+001
3.540665e+003,9.328590e+001
3.542593e+003,9.336723e+001
3.544521e+003,9.345502e+001
3.546450e+003,9.354832e+001
3.548378e+003,9.364415e+001
3.550307e+003,9.373874e+001
3.552235e+003,9.382903e+001
3.554164e+003,9.391360e+001
3.556092e+003,9.399326e+001
3.558021e+003,9.407051e+001
3.559949e+003,9.414881e+001
3.561878e+003,9.423129e+001
3.563806e+003,9.431990e+001
3.565735e+003,9.441518e+001
3.567663e+003,9.451641e+001
3.569592e+003,9.462266e+001
3.571520e+003,9.473318e+001
3.573448e+003,9.484763e+001
3.575377e+003,9.496545e+001
3.577305e+003,9.508560e+001
3.579234e+003,9.520655e+001
3.581162e+003,9.532632e+001
3.583091e+003,9.544361e+001
3.585019e+003,9.555853e+001
3.586948e+003,9.567245e+001
3.588876e+003,9.578738e+001
3.590805e+003,9.590480e+001
3.592733e+003,9.602466e+001
3.594662e+003,9.614547e+001
3.596590e+003,9.626546e+001
3.598519e+003,9.638387e+001
3.600447e+003,9.650210e+001
3.602375e+003,9.662392e+001
3.604304e+003,9.675437e+001
3.606232e+003,9.689749e+001
3.608161e+003,9.705466e+001
3.610089e+003,9.722296e+001
3.612018e+003,9.739600e+001
3.613946e+003,9.756618e+001
3.615875e+003,9.772850e+001
3.617803e+003,9.788208e+001
3.619732e+003,9.803063e+001
3.621660e+003,9.818035e+001
3.623589e+003,9.833787e+001
3.625517e+003,9.850712e+001
3.627446e+003,9.868775e+001
3.629374e+003,9.887582e+001
3.631302e+003,9.906582e+001
3.633231e+003,9.925319e+001
3.635159e+003,9.943552e+001
3.637088e+003,9.961330e+001
3.639016e+003,9.978860e+001
3.640945e+003,9.996422e+001
3.642873e+003,1.001424e+002
3.644802e+003,1.003234e+002
3.646730e+003,1.005046e+002
3.648659e+003,1.006804e+002
3.650587e+003,1.008442e+002
3.652516e+003,1.009915e+002
3.654444e+003,1.011202e+002
3.656373e+003,1.012320e+002
3.658301e+003,1.013305e+002
3.660229e+003,1.014206e+002
3.662158e+003,1.015079e+002
3.664086e+003,1.015985e+002
3.666015e+003,1.016969e+002
3.667943e+003,1.018050e+002
3.669872e+003,1.019196e+002
3.671800e+003,1.020333e+002
3.673729e+003,1.021368e+002
3.675657e+003,1.022239e+002
3.677586e+003,1.022928e+002
3.679514e+003,1.023461e+002
3.681443e+003,1.023884e+002
3.683371e+003,1.024248e+002
3.685300e+003,1.024588e+002
3.687228e+003,1.024927e+002
3.689156e+003,1.025272e+002
3.691085e+003,1.025622e+002
3.693013e+003,1.025971e+002
3.694942e+003,1.026314e+002
3.696870e+003,1.026644e+002
3.698799e+003,1.026954e+002
3.700727e+003,1.027231e+002
3.702656e+003,1.027460e+002
3.704584e+003,1.027626e+002
3.706513e+003,1.027724e+002
3.708441e+003,1.027759e+002
3.710370e+003,1.027749e+002
3.712298e+003,1.027717e+002
3.714227e+003,1.027679e+002
3.716155e+003,1.027650e+002
3.718083e+003,1.027639e+002
3.720012e+003,1.027656e+002
3.721940e+003,1.027718e+002
3.723869e+003,1.027845e+002
3.725797e+003,1.028057e+002
3.727726e+003,1.028359e+002
3.729654e+003,1.028733e+002
3.731583e+003,1.029132e+002
3.733511e+003,1.029495e+002
3.735440e+003,1.029764e+002
3.737368e+003,1.029901e+002
3.739297e+003,1.029899e+002
3.741225e+003,1.029786e+002
3.743154e+003,1.029613e+002
3.745082e+003,1.029434e+002
3.747010e+003,1.029294e+002
3.748939e+003,1.029211e+002
3.750867e+003,1.029186e+002
3.752796e+003,1.029202e+002
3.754724e+003,1.029247e+002
3.756653e+003,1.029312e+002
3.758581e+003,1.029393e+002
3.760510e+003,1.029489e+002
3.762438e+003,1.029597e+002
3.764367e+003,1.029711e+002
3.766295e+003,1.029825e+002
3.768224e+003,1.029930e+002
3.770152e+003,1.030020e+002
3.772081e+003,1.030095e+002
3.774009e+003,1.030159e+002
3.775938e+003,1.030218e+002
3.777866e+003,1.030282e+002
3.779794e+003,1.030361e+002
3.781723e+003,1.030464e+002
3.783651e+003,1.030595e+002
3.785580e+003,1.030752e+002
3.787508e+003,1.030927e+002
3.789437e+003,1.031105e+002
3.791365e+003,1.031267e+002
3.793294e+003,1.031392e+002
3.795222e+003,1.031467e+002
3.797151e+003,1.031488e+002
3.799079e+003,1.031469e+002
3.801008e+003,1.031435e+002
3.802936e+003,1.031408e+002
3.804865e+003,1.031402e+002
3.806793e+003,1.031416e+002
3.808721e+003,1.031437e+002
3.810650e+003,1.031454e+002
3.812578e+003,1.031462e+002
3.814507e+003,1.031462e+002
3.816435e+003,1.031467e+002
3.818364e+003,1.031485e+002
3.820292e+003,1.031520e+002
3.822221e+003,1.031561e+002
3.824149e+003,1.031592e+002
3.826078e+003,1.031600e+002
3.828006e+003,1.031586e+002
3.829935e+003,1.031564e+002
3.831863e+003,1.031559e+002
3.833792e+003,1.031601e+002
3.835720e+003,1.031699e+002
3.837648e+003,1.031844e+002
3.839577e+003,1.032000e+002
3.841505e+003,1.032131e+002
3.843434e+003,1.032213e+002
3.845362e+003,1.032240e+002
3.847291e+003,1.032231e+002
3.849219e+003,1.032221e+002
3.851148e+003,1.032243e+002
3.853076e+003,1.032312e+002
3.855005e+003,1.032413e+002
3.856933e+003,1.032514e+002
3.858862e+003,1.032578e+002
3.860790e+003,1.032580e+002
3.862719e+003,1.032522e+002
3.864647e+003,1.032426e+002
3.866575e+003,1.032329e+002
3.868504e+003,1.032263e+002
3.870432e+003,1.032243e+002
3.872361e+003,1.032261e+002
3.874289e+003,1.032298e+002
3.876218e+003,1.032332e+002
3.878146e+003,1.032356e+002
3.880075e+003,1.032377e+002
3.882003e+003,1.032416e+002
3.883932e+003,1.032492e+002
3.885860e+003,1.032612e+002
3.887789e+003,1.032762e+002
3.889717e+003,1.032910e+002
3.891646e+003,1.033019e+002
3.893574e+003,1.033057e+002
3.895502e+003,1.033011e+002
3.897431e+003,1.032895e+002
3.899359e+003,1.032746e+002
3.901288e+003,1.032607e+002
3.903216e+003,1.032513e+002
3.905145e+003,1.032477e+002
3.907073e+003,1.032492e+002
3.909002e+003,1.032536e+002
3.910930e+003,1.032593e+002
3.912859e+003,1.032650e+002
3.914787e+003,1.032709e+002
3.916716e+003,1.032775e+002
3.918644e+003,1.032852e+002
3.920573e+003,1.032937e+002
3.922501e+003,1.033021e+002
3.924429e+003,1.033083e+002
3.926358e+003,1.033105e+002
3.928286e+003,1.033080e+002
3.930215e+003,1.033013e+002
3.932143e+003,1.032925e+002
3.934072e+003,1.032840e+002
3.936000e+003,1.032785e+002
3.937929e+003,1.032775e+002
3.939857e+003,1.032810e+002
3.941786e+003,1.032876e+002
3.943714e+003,1.032949e+002
3.945643e+003,1.033007e+002
3.947571e+003,1.033034e+002
3.949500e+003,1.033026e+002
3.951428e+003,1.032991e+002
3.953356e+003,1.032946e+002
3.955285e+003,1.032906e+002
3.957213e+003,1.032884e+002
3.959142e+003,1.032885e+002
3.961070e+003,1.032906e+002
3.962999e+003,1.032939e+002
3.964927e+003,1.032975e+002
3.966856e+003,1.033005e+002
3.968784e+003,1.033020e+002
3.970713e+003,1.033017e+002
3.972641e+003,1.032997e+002
3.974570e+003,1.032961e+002
3.976498e+003,1.032915e+002
3.978427e+003,1.032865e+002
3.980355e+003,1.032820e+002
3.982283e+003,1.032788e+002
3.984212e+003,1.032776e+002
3.986140e+003,1.032787e+002
3.988069e+003,1.032819e+002
3.989997e+003,1.032865e+002
3.991926e+003,1.032912e+002
3.993854e+003,1.032944e+002
3.995783e+003,1.032945e+002
3.997711e+003,1.032905e+002
3.999640e+003,1.032822e+002
4.001568e+003,0.000000e+000
