3.991926e+002,4.411773e+001
4.011211e+002,4.411798e+001
4.030496e+002,4.416363e+001
4.049780e+002,4.421217e+001
4.069065e+002,4.422491e+001
4.088350e+002,4.417372e+001
4.107634e+002,4.404755e+001
4.126919e+002,4.384822e+001
4.146204e+002,4.358386e+001
4.165488e+002,4.326336e+001
4.184773e+002,4.289380e+001
4.204058e+002,4.248200e+001
4.223342e+002,4.203991e+001
4.242627e+002,4.158727e+001
4.261912e+002,4.115068e+001
4.281196e+002,4.075599e+001
4.300481e+002,4.042558e+001
4.319766e+002,4.017168e+001
4.339050e+002,3.999402e+001
4.358335e+002,3.988356e+001
4.377620e+002,3.982623e+001
4.396904e+002,3.981002e+001
4.416189e+002,3.982879e+001
4.435474e+002,3.988272e+001
4.454758e+002,3.997364e+001
4.474043e+002,4.009835e+001
4.493328e+002,4.024502e+001
4.512612e+002,4.039192e+001
4.531897e+002,4.051186e+001
4.551182e+002,4.058177e+001
4.570466e+002,4.058627e+001
4.589751e+002,4.052140e+001
4.609036e+002,4.039113e+001
4.628320e+002,4.020114e+001
4.647605e+002,3.995407e+001
4.666890e+002,3.964946e+001
4.686174e+002,3.928733e+001
4.705459e+002,3.887369e+001
4.724744e+002,3.842382e+001
4.744028e+002,3.796180e+001
4.763313e+002,3.751278e+001
4.782598e+002,3.709904e+001
4.801882e+002,3.673511e+001
4.821167e+002,3.642726e+001
4.840452e+002,3.617903e+001
4.859736e+002,3.599535e+001
4.879021e+002,3.588423e+001
4.898306e+002,3.585650e+001
4.917590e+002,3.591950e+001
4.936875e+002,3.607204e+001
4.956160e+002,3.630128e+001
4.975444e+002,3.658538e+001
4.994729e+002,3.689806e+001
5.014014e+002,3.721564e+001
5.033298e+002,3.752498e+001
5.052583e+002,3.782397e+001
5.071868e+002,3.812036e+001
5.091152e+002,3.842570e+001
5.110437e+002,3.875142e+001
5.129722e+002,3.910478e+001
5.149006e+002,3.948864e+001
5.168291e+002,3.990315e+001
5.187576e+002,4.034686e+001
5.206860e+002,4.081647e+001
5.226145e+002,4.130479e+001
5.245430e+002,4.179955e+001
5.264714e+002,4.228247e+001
5.283999e+002,4.273094e+001
5.303284e+002,4.312429e+001
5.322568e+002,4.344558e+001
5.341853e+002,4.368565e+001
5.361138e+002,4.384378e+001
5.380422e+002,4.392548e+001
5.399707e+002,4.394032e+001
5.418992e+002,4.389943e+001
5.438276e+002,4.381637e+001
5.457561e+002,4.370712e+001
5.476846e+002,4.359193e+001
5.496130e+002,4.349725e+001
5.515415e+002,4.345042e+001
5.534700e+002,4.347752e+001
5.553984e+002,4.359698e+001
5.573269e+002,4.381398e+001
5.592554e+002,4.411991e+001
5.611838e+002,4.449361e+001
5.631123e+002,4.490813e+001
5.650408e+002,4.533344e+001
5.669692e+002,4.574426e+001
5.688977e+002,4.612362e+001
5.708262e+002,4.646267e+001
5.727546e+002,4.676125e+001
5.746831e+002,4.702534e+001
5.766116e+002,4.726482e+001
5.785400e+002,4.748997e+001
5.804685e+002,4.771049e+001
5.823970e+002,4.793380e+001
5.843254e+002,4.816394e+001
5.862539e+002,4.840201e+001
5.881824e+002,4.864614e+001
5.901108e+002,4.889248e+001
5.920393e+002,4.913558e+001
5.939678e+002,4.936946e+001
5.958962e+002,4.958846e+001
5.978247e+002,4.978749e+001
5.997532e+002,4.996391e+001
6.016816e+002,5.011834e+001
6.036101e+002,5.025633e+001
6.055386e+002,5.038783e+001
6.074670e+002,5.052697e+001
6.093955e+002,5.068933e+001
6.113240e+002,5.088715e+001
6.132524e+002,5.112742e+001
6.151809e+002,5.140881e+001
6.171094e+002,5.172266e+001
6.190378e+002,5.205495e+001
6.209663e+002,5.239116e+001
6.228948e+002,5.272000e+001
6.248232e+002,5.303437e+001
6.267517e+002,5.333197e+001
6.286802e+002,5.361259e+001
6.306086e+002,5.387601e+001
6.325371e+002,5.412066e+001
6.344656e+002,5.434336e+001
6.363940e+002,5.454031e+001
6.383225e+002,5.470824e+001
6.402510e+002,5.484398e+001
6.421794e+002,5.494377e+001
6.441079e+002,5.500240e+001
6.460364e+002,5.501263e+001
6.479648e+002,5.496790e+001
6.498933e+002,5.486605e+001
6.518218e+002,5.471381e+001
6.537502e+002,5.452856e+001
6.556787e+002,5.433914e+001
6.576072e+002,5.418389e+001
6.595356e+002,5.410183e+001
6.614641e+002,5.413065e+001
6.633926e+002,5.429720e+001
6.653210e+002,5.460962e+001
6.672495e+002,5.505354e+001
6.691780e+002,5.559363e+001
6.711064e+002,5.618464e+001
6.730349e+002,5.678044e+001
6.749634e+002,5.734731e+001
6.768918e+002,5.786565e+001
6.788203e+002,5.832615e+001
6.807488e+002,5.872631e+001
6.826772e+002,5.906569e+001
6.846057e+002,5.934465e+001
6.865342e+002,5.956511e+001
6.884626e+002,5.973173e+001
6.903911e+002,5.985265e+001
6.923196e+002,5.993812e+001
6.942480e+002,6.000029e+001
6.961765e+002,6.005142e+001
6.981050e+002,6.010307e+001
7.000334e+002,6.016765e+001
7.019619e+002,6.025734e+001
7.038904e+002,6.038397e+001
7.058188e+002,6.055869e+001
7.077473e+002,6.078914e+001
7.096758e+002,6.107910e+001
7.116042e+002,6.142738e+001
7.135327e+002,6.182843e+001
7.154612e+002,6.227255e+001
7.173896e+002,6.274733e+001
7.193181e+002,6.323978e+001
7.212466e+002,6.373589e+001
7.231750e+002,6.422251e+001
7.251035e+002,6.468797e+001
7.270320e+002,6.512157e+001
7.289604e+002,6.551536e+001
7.308889e+002,6.586438e+001
7.328174e+002,6.616730e+001
7.347458e+002,6.642672e+001
7.366743e+002,6.664844e+001
7.386028e+002,6.684024e+001
7.405313e+002,6.700959e+001
7.424597e+002,6.716314e+001
7.443882e+002,6.730572e+001
7.463167e+002,6.744038e+001
7.482451e+002,6.756920e+001
7.501736e+002,6.769357e+001
7.521021e+002,6.781419e+001
7.540305e+002,6.793080e+001
7.559590e+002,6.804205e+001
7.578875e+002,6.814562e+001
7.598159e+002,6.823866e+001
7.617444e+002,6.831888e+001
7.636729e+002,6.838495e+001
7.656013e+002,6.843658e+001
7.675298e+002,6.847400e+001
7.694582e+002,6.849677e+001
7.713867e+002,6.850303e+001
7.733151e+002,6.848947e+001
7.752436e+002,6.845158e+001
7.771721e+002,6.838535e+001
7.791005e+002,6.828878e+001
7.810290e+002,6.816325e+001
7.829575e+002,6.801390e+001
7.848859e+002,6.785005e+001
7.868144e+002,6.768527e+001
7.887429e+002,6.753503e+001
7.906713e+002,6.741735e+001
7.925998e+002,6.735033e+001
7.945283e+002,6.734857e+001
7.964567e+002,6.742175e+001
7.983852e+002,6.757067e+001
8.003137e+002,6.778682e+001
8.022421e+002,6.805178e+001
8.041706e+002,6.834179e+001
8.060991e+002,6.863159e+001
8.080275e+002,6.889727e+001
8.099560e+002,6.912141e+001
8.118845e+002,6.929265e+001
8.138129e+002,6.940566e+001
8.157414e+002,6.946020e+001
8.176699e+002,6.945976e+001
8.195983e+002,6.941148e+001
8.215268e+002,6.932487e+001
8.234553e+002,6.921255e+001
8.253837e+002,6.908751e+001
8.273122e+002,6.896023e+001
8.292407e+002,6.883644e+001
8.311691e+002,6.871424e+001
8.330976e+002,6.858430e+001
8.350261e+002,6.843106e+001
8.369545e+002,6.823820e+001
8.388830e+002,6.799173e+001
8.408115e+002,6.768385e+001
8.427399e+002,6.731490e+001
8.446684e+002,6.689294e+001
8.465969e+002,6.643231e+001
8.485253e+002,6.595046e+001
8.504538e+002,6.546915e+001
8.523823e+002,6.501210e+001
8.543107e+002,6.460384e+001
8.562392e+002,6.427052e+001
8.581677e+002,6.403375e+001
8.600961e+002,6.390747e+001
8.620246e+002,6.389353e+001
8.639531e+002,6.397941e+001
8.658815e+002,6.413787e+001
8.678100e+002,6.432996e+001
8.697385e+002,6.451517e+001
8.716669e+002,6.465417e+001
8.735954e+002,6.471844e+001
8.755239e+002,6.469496e+001
8.774523e+002,6.458575e+001
8.793808e+002,6.440619e+001
8.813093e+002,6.417937e+001
8.832377e+002,6.393259e+001
8.851662e+002,6.368928e+001
8.870947e+002,6.346653e+001
8.890231e+002,6.327285e+001
8.909516e+002,6.310732e+001
8.928801e+002,6.296124e+001
8.948085e+002,6.282013e+001
8.967370e+002,6.266782e+001
8.986655e+002,6.248667e+001
9.005939e+002,6.226011e+001
9.025224e+002,6.197399e+001
9.044509e+002,6.161515e+001
9.063793e+002,6.117330e+001
9.083078e+002,6.064182e+001
9.102363e+002,6.001865e+001
9.121647e+002,5.930811e+001
9.140932e+002,5.852126e+001
9.160217e+002,5.767571e+001
9.179501e+002,5.679095e+001
9.198786e+002,5.588601e+001
9.218071e+002,5.497439e+001
9.237355e+002,5.406025e+001
9.256640e+002,5.313765e+001
9.275925e+002,5.219116e+001
9.295209e+002,5.120004e+001
9.314494e+002,5.014006e+001
9.333779e+002,4.899109e+001
9.353063e+002,4.774222e+001
9.372348e+002,4.639736e+001
9.391633e+002,4.497963e+001
9.410917e+002,4.353487e+001
9.430202e+002,4.213268e+001
9.449487e+002,4.085263e+001
9.468771e+002,3.978217e+001
9.488056e+002,3.899872e+001
9.507341e+002,3.855128e+001
9.526625e+002,3.845662e+001
9.545910e+002,3.869117e+001
9.565195e+002,3.919852e+001
9.584479e+002,3.989326e+001
9.603764e+002,4.068143e+001
9.623049e+002,4.147259e+001
9.642333e+002,4.218542e+001
9.661618e+002,4.276396e+001
9.680903e+002,4.317475e+001
9.700187e+002,4.340805e+001
9.719472e+002,4.347473e+001
9.738757e+002,4.340202e+001
9.758041e+002,4.322727e+001
9.777326e+002,4.298798e+001
9.796611e+002,4.271931e+001
9.815895e+002,4.244495e+001
9.835180e+002,4.217451e+001
9.854465e+002,4.190571e+001
9.873749e+002,4.162917e+001
9.893034e+002,4.133633e+001
9.912319e+002,4.102710e+001
9.931603e+002,4.071402e+001
9.950888e+002,4.042309e+001
9.970173e+002,4.018919e+001
9.989457e+002,4.004478e+001
1.000874e+003,4.001475e+001
1.002803e+003,4.010776e+001
1.004731e+003,4.031438e+001
1.006660e+003,4.060701e+001
1.008588e+003,4.094564e+001
1.010517e+003,4.128522e+001
1.012445e+003,4.157774e+001
1.014373e+003,4.178358e+001
1.016302e+003,4.187498e+001
1.018230e+003,4.184062e+001
1.020159e+003,4.168895e+001
1.022087e+003,4.144872e+001
1.024016e+003,4.116585e+001
1.025944e+003,4.089044e+001
1.027873e+003,4.067104e+001
1.029801e+003,4.053884e+001
1.031730e+003,4.049916e+001
1.033658e+003,4.052895e+001
1.035587e+003,4.058259e+001
1.037515e+003,4.060548e+001
1.039444e+003,4.054575e+001
1.041372e+003,4.037498e+001
1.043301e+003,4.009647e+001
1.045229e+003,3.975029e+001
1.047157e+003,3.940223e+001
1.049086e+003,3.913689e+001
1.051014e+003,3.903967e+001
1.052943e+003,3.917497e+001
1.054871e+003,3.958205e+001
1.056800e+003,4.026430e+001
1.058728e+003,4.119302e+001
1.060657e+003,4.231078e+001
1.062585e+003,4.354658e+001
1.064514e+003,4.482871e+001
1.066442e+003,4.609096e+001
1.068371e+003,4.728807e+001
1.070299e+003,4.839619e+001
1.072228e+003,4.941328e+001
1.074156e+003,5.035417e+001
1.076084e+003,5.124442e+001
1.078013e+003,5.211169e+001
1.079941e+003,5.297668e+001
1.081870e+003,5.385057e+001
1.083798e+003,5.473091e+001
1.085727e+003,5.560319e+001
1.087655e+003,5.644155e+001
1.089584e+003,5.721497e+001
1.091512e+003,5.789213e+001
1.093441e+003,5.844489e+001
1.095369e+003,5.885667e+001
1.097298e+003,5.912537e+001
1.099226e+003,5.926724e+001
1.101155e+003,5.931399e+001
1.103083e+003,5.931194e+001
1.105011e+003,5.931307e+001
1.106940e+003,5.936206e+001
1.108868e+003,5.949292e+001
1.110797e+003,5.971981e+001
1.112725e+003,6.003742e+001
1.114654e+003,6.042506e+001
1.116582e+003,6.085555e+001
1.118511e+003,6.130353e+001
1.120439e+003,6.175094e+001
1.122368e+003,6.219135e+001
1.124296e+003,6.262700e+001
1.126225e+003,6.306421e+001
1.128153e+003,6.350679e+001
1.130082e+003,6.395162e+001
1.132010e+003,6.438596e+001
1.133938e+003,6.479018e+001
1.135867e+003,6.513876e+001
1.137795e+003,6.540698e+001
1.139724e+003,6.557547e+001
1.141652e+003,6.563183e+001
1.143581e+003,6.557436e+001
1.145509e+003,6.541238e+001
1.147438e+003,6.516766e+001
1.149366e+003,6.487138e+001
1.151295e+003,6.456515e+001
1.153223e+003,6.429818e+001
1.155151e+003,6.411790e+001
1.157080e+003,6.406975e+001
1.159008e+003,6.418689e+001
1.160937e+003,6.448351e+001
1.162865e+003,6.495273e+001
1.164794e+003,6.556586e+001
1.166722e+003,6.627877e+001
1.168651e+003,6.703558e+001
1.170579e+003,6.778370e+001
1.172508e+003,6.847945e+001
1.174436e+003,6.909223e+001
1.176365e+003,6.960848e+001
1.178293e+003,7.002658e+001
1.180222e+003,7.035224e+001
1.182150e+003,7.059225e+001
1.184078e+003,7.075121e+001
1.186007e+003,7.083045e+001
1.187935e+003,7.083049e+001
1.189864e+003,7.075550e+001
1.191792e+003,7.061706e+001
1.193721e+003,7.043575e+001
1.195649e+003,7.024207e+001
1.197578e+003,7.006915e+001
1.199506e+003,6.994885e+001
1.201435e+003,6.990655e+001
1.203363e+003,6.995528e+001
1.205292e+003,7.009680e+001
1.207220e+003,7.032210e+001
1.209149e+003,7.061581e+001
1.211077e+003,7.095753e+001
1.213005e+003,7.132568e+001
1.214934e+003,7.170048e+001
1.216862e+003,7.206393e+001
1.218791e+003,7.240398e+001
1.220719e+003,7.271627e+001
1.222648e+003,7.300593e+001
1.224576e+003,7.328690e+001
1.226505e+003,7.358012e+001
1.228433e+003,7.390919e+001
1.230362e+003,7.429214e+001
1.232290e+003,7.473819e+001
1.234219e+003,7.524355e+001
1.236147e+003,7.579317e+001
1.238076e+003,7.636294e+001
1.240004e+003,7.692667e+001
1.241932e+003,7.746237e+001
1.243861e+003,7.795349e+001
1.245789e+003,7.839219e+001
1.247718e+003,7.877762e+001
1.249646e+003,7.911379e+001
1.251575e+003,7.940694e+001
1.253503e+003,7.966391e+001
1.255432e+003,7.989117e+001
1.257360e+003,8.009348e+001
1.259289e+003,8.027435e+001
1.261217e+003,8.043571e+001
1.263146e+003,8.057792e+001
1.265074e+003,8.070085e+001
1.267003e+003,8.080507e+001
1.268931e+003,8.089330e+001
1.270859e+003,8.097190e+001
1.272788e+003,8.105058e+001
1.274716e+003,8.114144e+001
1.276645e+003,8.125751e+001
1.278573e+003,8.140849e+001
1.280502e+003,8.159911e+001
1.282430e+003,8.182671e+001
1.284359e+003,8.208170e+001
1.286287e+003,8.234783e+001
1.288216e+003,8.260490e+001
1.290144e+003,8.283303e+001
1.292073e+003,8.301268e+001
1.294001e+003,8.312829e+001
1.295930e+003,8.316953e+001
1.297858e+003,8.313146e+001
1.299786e+003,8.301606e+001
1.301715e+003,8.283286e+001
1.303643e+003,8.260021e+001
1.305572e+003,8.234268e+001
1.307500e+003,8.209132e+001
1.309429e+003,8.187981e+001
1.311357e+003,8.173639e+001
1.313286e+003,8.168127e+001
1.315214e+003,8.171931e+001
1.317143e+003,8.183878e+001
1.319071e+003,8.201151e+001
1.321000e+003,8.220071e+001
1.322928e+003,8.237000e+001
1.324857e+003,8.248880e+001
1.326785e+003,8.254139e+001
1.328714e+003,8.252693e+001
1.330642e+003,8.245836e+001
1.332570e+003,8.235571e+001
1.334499e+003,8.224158e+001
1.336427e+003,8.213383e+001
1.338356e+003,8.204041e+001
1.340284e+003,8.195937e+001
1.342213e+003,8.188113e+001
1.344141e+003,8.179462e+001
1.346070e+003,8.169106e+001
1.347998e+003,8.156786e+001
1.349927e+003,8.142799e+001
1.351855e+003,8.127824e+001
1.353784e+003,8.112599e+001
1.355712e+003,8.097778e+001
1.357641e+003,8.083929e+001
1.359569e+003,8.071603e+001
1.361497e+003,8.061634e+001
1.363426e+003,8.055283e+001
1.365354e+003,8.054108e+001
1.367283e+003,8.059925e+001
1.369211e+003,8.074280e+001
1.371140e+003,8.098008e+001
1.373068e+003,8.131034e+001
1.374997e+003,8.172248e+001
1.376925e+003,8.219724e+001
1.378854e+003,8.270884e+001
1.380782e+003,8.323139e+001
1.382711e+003,8.373969e+001
1.384639e+003,8.421069e+001
1.386568e+003,8.462693e+001
1.388496e+003,8.497460e+001
1.390424e+003,8.524564e+001
1.392353e+003,8.543828e+001
1.394281e+003,8.555716e+001
1.396210e+003,8.561157e+001
1.398138e+003,8.561210e+001
1.400067e+003,8.556833e+001
1.401995e+003,8.548553e+001
1.403924e+003,8.536488e+001
1.405852e+003,8.520509e+001
1.407781e+003,8.500478e+001
1.409709e+003,8.476516e+001
1.411638e+003,8.449260e+001
1.413566e+003,8.419861e+001
1.415495e+003,8.390187e+001
1.417423e+003,8.362558e+001
1.419351e+003,8.339194e+001
1.421280e+003,8.321928e+001
1.423208e+003,8.311694e+001
1.425137e+003,8.308498e+001
1.427065e+003,8.311568e+001
1.428994e+003,8.319617e+001
1.430922e+003,8.330954e+001
1.432851e+003,8.343514e+001
1.434779e+003,8.355286e+001
1.436708e+003,8.364505e+001
1.438636e+003,8.370068e+001
1.440565e+003,8.371717e+001
1.442493e+003,8.369731e+001
1.444422e+003,8.364511e+001
1.446350e+003,8.356134e+001
1.448278e+003,8.344167e+001
1.450207e+003,8.327746e+001
1.452135e+003,8.305905e+001
1.454064e+003,8.277977e+001
1.455992e+003,8.243903e+001
1.457921e+003,8.204017e+001
1.459849e+003,8.158424e+001
1.461778e+003,8.106738e+001
1.463706e+003,8.048174e+001
1.465635e+003,7.982531e+001
1.467563e+003,7.911259e+001
1.469492e+003,7.838602e+001
1.471420e+003,7.771344e+001
1.473349e+003,7.716834e+001
1.475277e+003,7.681380e+001
1.477205e+003,7.667948e+001
1.479134e+003,7.676460e+001
1.481062e+003,7.705312e+001
1.482991e+003,7.753033e+001
1.484919e+003,7.818950e+001
1.486848e+003,7.902646e+001
1.488776e+003,8.003001e+001
1.490705e+003,8.116759e+001
1.492633e+003,8.238384e+001
1.494562e+003,8.361695e+001
1.496490e+003,8.480679e+001
1.498419e+003,8.590951e+001
1.500347e+003,8.689870e+001
1.502276e+003,8.775616e+001
1.504204e+003,8.846986e+001
1.506132e+003,8.903371e+001
1.508061e+003,8.945368e+001
1.509989e+003,8.974772e+001
1.511918e+003,8.994399e+001
1.513846e+003,9.007341e+001
1.515775e+003,9.015925e+001
1.517703e+003,9.021736e+001
1.519632e+003,9.025632e+001
1.521560e+003,9.028072e+001
1.523489e+003,9.029486e+001
1.525417e+003,9.030352e+001
1.527346e+003,9.031065e+001
1.529274e+003,9.031804e+001
1.531203e+003,9.032441e+001
1.533131e+003,9.032597e+001
1.535059e+003,9.031779e+001
1.536988e+003,9.029690e+001
1.538916e+003,9.026511e+001
1.540845e+003,9.022987e+001
1.542773e+003,9.019996e+001
1.544702e+003,9.018052e+001
1.546630e+003,9.017041e+001
1.548559e+003,9.016409e+001
1.550487e+003,9.015398e+001
1.552416e+003,9.013377e+001
1.554344e+003,9.010092e+001
1.556273e+003,9.005791e+001
1.558201e+003,9.001149e+001
1.560130e+003,8.996881e+001
1.562058e+003,8.993301e+001
1.563986e+003,8.990187e+001
1.565915e+003,8.986961e+001
1.567843e+003,8.983004e+001
1.569772e+003,8.977943e+001
1.571700e+003,8.971731e+001
1.573629e+003,8.964658e+001
1.575557e+003,8.957156e+001
1.577486e+003,8.949592e+001
1.579414e+003,8.942075e+001
1.581343e+003,8.934450e+001
1.583271e+003,8.926405e+001
1.585200e+003,8.917651e+001
1.587128e+003,8.907998e+001
1.589057e+003,8.897366e+001
1.590985e+003,8.885732e+001
1.592913e+003,8.873031e+001
1.594842e+003,8.859121e+001
1.596770e+003,8.843827e+001
1.598699e+003,8.827044e+001
1.600627e+003,8.808815e+001
1.602556e+003,8.789333e+001
1.604484e+003,8.768857e+001
1.606413e+003,8.747507e+001
1.608341e+003,8.725168e+001
1.610270e+003,8.701510e+001
1.612198e+003,8.676195e+001
1.614127e+003,8.649197e+001
1.616055e+003,8.621093e+001
1.617984e+003,8.593008e+001
1.619912e+003,8.566335e+001
1.621840e+003,8.542163e+001
1.623769e+003,8.520891e+001
1.625697e+003,8.502288e+001
1.627626e+003,8.485825e+001
1.629554e+003,8.471120e+001
1.631483e+003,8.458189e+001
1.633411e+003,8.447417e+001
1.635340e+003,8.439291e+001
1.637268e+003,8.434068e+001
1.639197e+003,8.431597e+001
1.641125e+003,8.431459e+001
1.643054e+003,8.433249e+001
1.644982e+003,8.436893e+001
1.646911e+003,8.442698e+001
1.648839e+003,8.451105e+001
1.650767e+003,8.462209e+001
1.652696e+003,8.475471e+001
1.654624e+003,8.489899e+001
1.656553e+003,8.504608e+001
1.658481e+003,8.519221e+001
1.660410e+003,8.533929e+001
1.662338e+003,8.549230e+001
1.664267e+003,8.565616e+001
1.666195e+003,8.583266e+001
1.668124e+003,8.601911e+001
1.670052e+003,8.620886e+001
1.671981e+003,8.639509e+001
1.673909e+003,8.657330e+001
1.675838e+003,8.674311e+001
1.677766e+003,8.690657e+001
1.679694e+003,8.706553e+001
1.681623e+003,8.721901e+001
1.683551e+003,8.736288e+001
1.685480e+003,8.749155e+001
1.687408e+003,8.760078e+001
1.689337e+003,8.768838e+001
1.691265e+003,8.775311e+001
1.693194e+003,8.779305e+001
1.695122e+003,8.780419e+001
1.697051e+003,8.778136e+001
1.698979e+003,8.772147e+001
1.700908e+003,8.762583e+001
1.702836e+003,8.749977e+001
1.704765e+003,8.734840e+001
1.706693e+003,8.717318e+001
1.708621e+003,8.697129e+001
1.710550e+003,8.673888e+001
1.712478e+003,8.647668e+001
1.714407e+003,8.619440e+001
1.716335e+003,8.591116e+001
1.718264e+003,8.565018e+001
1.720192e+003,8.542697e+001
1.722121e+003,8.524438e+001
1.724049e+003,8.509265e+001
1.725978e+003,8.495669e+001
1.727906e+003,8.482203e+001
1.729835e+003,8.468192e+001
1.731763e+003,8.454090e+001
1.733692e+003,8.441609e+001
1.735620e+003,8.433141e+001
1.737548e+003,8.430868e+001
1.739477e+003,8.436214e+001
1.741405e+003,8.449539e+001
1.743334e+003,8.470426e+001
1.745262e+003,8.497934e+001
1.747191e+003,8.530832e+001
1.749119e+003,8.567609e+001
1.751048e+003,8.606670e+001
1.752976e+003,8.646697e+001
1.754905e+003,8.686729e+001
1.756833e+003,8.726262e+001
1.758762e+003,8.765143e+001
1.760690e+003,8.803284e+001
1.762619e+003,8.840599e+001
1.764547e+003,8.876971e+001
1.766475e+003,8.912234e+001
1.768404e+003,8.946214e+001
1.770332e+003,8.978698e+001
1.772261e+003,9.009331e+001
1.774189e+003,9.037604e+001
1.776118e+003,9.062959e+001
1.778046e+003,9.085001e+001
1.779975e+003,9.103709e+001
1.781903e+003,9.119524e+001
1.783832e+003,9.133263e+001
1.785760e+003,9.145876e+001
1.787689e+003,9.158228e+001
1.789617e+003,9.170819e+001
1.791546e+003,9.183683e+001
1.793474e+003,9.196491e+001
1.795402e+003,9.208834e+001
1.797331e+003,9.220479e+001
1.799259e+003,9.231492e+001
1.801188e+003,9.242108e+001
1.803116e+003,9.252547e+001
1.805045e+003,9.262802e+001
1.806973e+003,9.272659e+001
1.808902e+003,9.281770e+001
1.810830e+003,9.289891e+001
1.812759e+003,9.297045e+001
1.814687e+003,9.303511e+001
1.816616e+003,9.309682e+001
1.818544e+003,9.315835e+001
1.820473e+003,9.321973e+001
1.822401e+003,9.327835e+001
1.824329e+003,9.333049e+001
1.826258e+003,9.337445e+001
1.828186e+003,9.341222e+001
1.830115e+003,9.344940e+001
1.832043e+003,9.349242e+001
1.833972e+003,9.354485e+001
1.835900e+003,9.360624e+001
1.837829e+003,9.367213e+001
1.839757e+003,9.373671e+001
1.841686e+003,9.379531e+001
1.843614e+003,9.384710e+001
1.845543e+003,9.389469e+001
1.847471e+003,9.394238e+001
1.849400e+003,9.399246e+001
1.851328e+003,9.404380e+001
1.853256e+003,9.409212e+001
1.855185e+003,9.413279e+001
1.857113e+003,9.416319e+001
1.859042e+003,9.418474e+001
1.860970e+003,9.420238e+001
1.862899e+003,9.422297e+001
1.864827e+003,9.425202e+001
1.866756e+003,9.429125e+001
1.868684e+003,9.433859e+001
1.870613e+003,9.439006e+001
1.872541e+003,9.444254e+001
1.874470e+003,9.449530e+001
1.876398e+003,9.454947e+001
1.878327e+003,9.460579e+001
1.880255e+003,9.466246e+001
1.882183e+003,9.471487e+001
1.884112e+003,9.475690e+001
1.886040e+003,9.478434e+001
1.887969e+003,9.479845e+001
1.889897e+003,9.480666e+001
1.891826e+003,9.482031e+001
1.893754e+003,9.484918e+001
1.895683e+003,9.489777e+001
1.897611e+003,9.496280e+001
1.899540e+003,9.503510e+001
1.901468e+003,9.510347e+001
1.903396e+003,9.516042e+001
1.905325e+003,9.520408e+001
1.907253e+003,9.523812e+001
1.909182e+003,9.526811e+001
1.911110e+003,9.529810e+001
1.913039e+003,9.532745e+001
1.914967e+003,9.535233e+001
1.916896e+003,9.536826e+001
1.918824e+003,9.537467e+001
1.920753e+003,9.537640e+001
1.922681e+003,9.538287e+001
1.924610e+003,9.540263e+001
1.926538e+003,9.543954e+001
1.928467e+003,9.548993e+001
1.930395e+003,9.554420e+001
1.932323e+003,9.559025e+001
1.934252e+003,9.561882e+001
1.936180e+003,9.562712e+001
1.938109e+003,9.561932e+001
1.940037e+003,9.560412e+001
1.941966e+003,9.559000e+001
1.943894e+003,9.558355e+001
1.945823e+003,9.558791e+001
1.947751e+003,9.560463e+001
1.949680e+003,9.563606e+001
1.951608e+003,9.568572e+001
1.953537e+003,9.575616e+001
1.955465e+003,9.584600e+001
1.957394e+003,9.594753e+001
1.959322e+003,9.604707e+001
1.961250e+003,9.613021e+001
1.963179e+003,9.618934e+001
1.965107e+003,9.622809e+001
1.967036e+003,9.626114e+001
1.968964e+003,9.630523e+001
1.970893e+003,9.637044e+001
1.972821e+003,9.645227e+001
1.974750e+003,9.653371e+001
1.976678e+003,9.659403e+001
1.978607e+003,9.662193e+001
1.980535e+003,9.661996e+001
1.982464e+003,9.660259e+001
1.984392e+003,9.658549e+001
1.986321e+003,9.657819e+001
1.988249e+003,9.657891e+001
1.990177e+003,9.657803e+001
1.992106e+003,9.656298e+001
1.994034e+003,9.652779e+001
1.995963e+003,9.647615e+001
1.997891e+003,9.642058e+001
1.999820e+003,9.637555e+001
2.001748e+003,9.635078e+001
2.003677e+003,9.634616e+001
2.005605e+003,9.635290e+001
2.007534e+003,9.635827e+001
2.009462e+003,9.635370e+001
2.011391e+003,9.634026e+001
2.013319e+003,9.632755e+001
2.015248e+003,9.632550e+001
2.017176e+003,9.633694e+001
2.019104e+003,9.635275e+001
2.021033e+003,9.635580e+001
2.022961e+003,9.633108e+001
2.024890e+003,9.627524e+001
2.026818e+003,9.620132e+001
2.028747e+003,9.613548e+001
2.030675e+003,9.610616e+001
2.032604e+003,9.612884e+001
2.034532e+003,9.620116e+001
2.036461e+003,9.630259e+001
2.038389e+003,9.640585e+001
2.040318e+003,9.648633e+001
2.042246e+003,9.653153e+001
2.044175e+003,9.654218e+001
2.046103e+003,9.652656e+001
2.048031e+003,9.649308e+001
2.049960e+003,9.644614e+001
2.051888e+003,9.638537e+001
2.053817e+003,9.630822e+001
2.055745e+003,9.621328e+001
2.057674e+003,9.610260e+001
2.059602e+003,9.598154e+001
2.061531e+003,9.585773e+001
2.063459e+003,9.573945e+001
2.065388e+003,9.563328e+001
2.067316e+003,9.554447e+001
2.069245e+003,9.547654e+001
2.071173e+003,9.543081e+001
2.073102e+003,9.540608e+001
2.075030e+003,9.539768e+001
2.076958e+003,9.539748e+001
2.078887e+003,9.539443e+001
2.080815e+003,9.537852e+001
2.082744e+003,9.534338e+001
2.084672e+003,9.528954e+001
2.086601e+003,9.522450e+001
2.088529e+003,9.516122e+001
2.090458e+003,9.511353e+001
2.092386e+003,9.509050e+001
2.094315e+003,9.509367e+001
2.096243e+003,9.511649e+001
2.098172e+003,9.514741e+001
2.100100e+003,9.517401e+001
2.102029e+003,9.518872e+001
2.103957e+003,9.519066e+001
2.105885e+003,9.518400e+001
2.107814e+003,9.517464e+001
2.109742e+003,9.516656e+001
2.111671e+003,9.516003e+001
2.113599e+003,9.515210e+001
2.115528e+003,9.513890e+001
2.117456e+003,9.511808e+001
2.119385e+003,9.509042e+001
2.121313e+003,9.505962e+001
2.123242e+003,9.503056e+001
2.125170e+003,9.500731e+001
2.127099e+003,9.499223e+001
2.129027e+003,9.498533e+001
2.130956e+003,9.498576e+001
2.132884e+003,9.499314e+001
2.134813e+003,9.500813e+001
2.136741e+003,9.503247e+001
2.138669e+003,9.506633e+001
2.140598e+003,9.510714e+001
2.142526e+003,9.514890e+001
2.144455e+003,9.518446e+001
2.146383e+003,9.520924e+001
2.148312e+003,9.522451e+001
2.150240e+003,9.523837e+001
2.152169e+003,9.526269e+001
2.154097e+003,9.530879e+001
2.156026e+003,9.537973e+001
2.157954e+003,9.546783e+001
2.159883e+003,9.555677e+001
2.161811e+003,9.563032e+001
2.163740e+003,9.567921e+001
2.165668e+003,9.570415e+001
2.167596e+003,9.571246e+001
2.169525e+003,9.571338e+001
2.171453e+003,9.571432e+001
2.173382e+003,9.571851e+001
2.175310e+003,9.572605e+001
2.177239e+003,9.573439e+001
2.179167e+003,9.573905e+001
2.181096e+003,9.573280e+001
2.183024e+003,9.570737e+001
2.184953e+003,9.565310e+001
2.186881e+003,9.556315e+001
2.188810e+003,9.543713e+001
2.190738e+003,9.528410e+001
2.192667e+003,9.512273e+001
2.194595e+003,9.497638e+001
2.196523e+003,9.486868e+001
2.198452e+003,9.481609e+001
2.200380e+003,9.482282e+001
2.202309e+003,9.488098e+001
2.204237e+003,9.497344e+001
2.206166e+003,9.508015e+001
2.208094e+003,9.518213e+001
2.210023e+003,9.526727e+001
2.211951e+003,9.532919e+001
2.213880e+003,9.536456e+001
2.215808e+003,9.537140e+001
2.217737e+003,9.534757e+001
2.219665e+003,9.529203e+001
2.221594e+003,9.520774e+001
2.223522e+003,9.510351e+001
2.225450e+003,9.499368e+001
2.227379e+003,9.489413e+001
2.229307e+003,9.481954e+001
2.231236e+003,9.477750e+001
2.233164e+003,9.476767e+001
2.235093e+003,9.478207e+001
2.237021e+003,9.480946e+001
2.238950e+003,9.483881e+001
2.240878e+003,9.486230e+001
2.242807e+003,9.487671e+001
2.244735e+003,9.488191e+001
2.246664e+003,9.487906e+001
2.248592e+003,9.486911e+001
2.250521e+003,9.485246e+001
2.252449e+003,9.482980e+001
2.254377e+003,9.480254e+001
2.256306e+003,9.477367e+001
2.258234e+003,9.474673e+001
2.260163e+003,9.472440e+001
2.262091e+003,9.470783e+001
2.264020e+003,9.469606e+001
2.265948e+003,9.468687e+001
2.267877e+003,9.467824e+001
2.269805e+003,9.466936e+001
2.271734e+003,9.466065e+001
2.273662e+003,9.465302e+001
2.275591e+003,9.464624e+001
2.277519e+003,9.463813e+001
2.279448e+003,9.462485e+001
2.281376e+003,9.460241e+001
2.283304e+003,9.456808e+001
2.285233e+003,9.452208e+001
2.287161e+003,9.446777e+001
2.289090e+003,9.441084e+001
2.291018e+003,9.435723e+001
2.292947e+003,9.431194e+001
2.294875e+003,9.427781e+001
2.296804e+003,9.425507e+001
2.298732e+003,9.424210e+001
2.300661e+003,9.423645e+001
2.302589e+003,9.423586e+001
2.304518e+003,9.423853e+001
2.306446e+003,9.424349e+001
2.308375e+003,9.425015e+001
2.310303e+003,9.425771e+001
2.312231e+003,9.426514e+001
2.314160e+003,9.427100e+001
2.316088e+003,9.427361e+001
2.318017e+003,9.427146e+001
2.319945e+003,9.426340e+001
2.321874e+003,9.424866e+001
2.323802e+003,9.422708e+001
2.325731e+003,9.419911e+001
2.327659e+003,9.416603e+001
2.329588e+003,9.413010e+001
2.331516e+003,9.409497e+001
2.333445e+003,9.406499e+001
2.335373e+003,9.404435e+001
2.337302e+003,9.403593e+001
2.339230e+003,9.404005e+001
2.341158e+003,9.405466e+001
2.343087e+003,9.407628e+001
2.345015e+003,9.410152e+001
2.346944e+003,9.412777e+001
2.348872e+003,9.415355e+001
2.350801e+003,9.417801e+001
2.352729e+003,9.420033e+001
2.354658e+003,9.421900e+001
2.356586e+003,9.423190e+001
2.358515e+003,9.423679e+001
2.360443e+003,9.423264e+001
2.362372e+003,9.422081e+001
2.364300e+003,9.420519e+001
2.366229e+003,9.419057e+001
2.368157e+003,9.418102e+001
2.370085e+003,9.417914e+001
2.372014e+003,9.418557e+001
2.373942e+003,9.419994e+001
2.375871e+003,9.422148e+001
2.377799e+003,9.424921e+001
2.379728e+003,9.428214e+001
2.381656e+003,9.431898e+001
2.383585e+003,9.435814e+001
2.385513e+003,9.439742e+001
2.387442e+003,9.443459e+001
2.389370e+003,9.446783e+001
2.391299e+003,9.449626e+001
2.393227e+003,9.452013e+001
2.395156e+003,9.454086e+001
2.397084e+003,9.456036e+001
2.399012e+003,9.458012e+001
2.400941e+003,9.460093e+001
2.402869e+003,9.462278e+001
2.404798e+003,9.464524e+001
2.406726e+003,9.466832e+001
2.408655e+003,9.469273e+001
2.410583e+003,9.471982e+001
2.412512e+003,9.475098e+001
2.414440e+003,9.478696e+001
2.416369e+003,9.482719e+001
2.418297e+003,9.486979e+001
2.420226e+003,9.491235e+001
2.422154e+003,9.495277e+001
2.424083e+003,9.498972e+001
2.426011e+003,9.502316e+001
2.427939e+003,9.505374e+001
2.429868e+003,9.508199e+001
2.431796e+003,9.510784e+001
2.433725e+003,9.513050e+001
2.435653e+003,9.514886e+001
2.437582e+003,9.516243e+001
2.439510e+003,9.517186e+001
2.441439e+003,9.517905e+001
2.443367e+003,9.518653e+001
2.445296e+003,9.519679e+001
2.447224e+003,9.521106e+001
2.449153e+003,9.522923e+001
2.451081e+003,9.524976e+001
2.453010e+003,9.527077e+001
2.454938e+003,9.529052e+001
2.456866e+003,9.530823e+001
2.458795e+003,9.532410e+001
2.460723e+003,9.533916e+001
2.462652e+003,9.535460e+001
2.464580e+003,9.537106e+001
2.466509e+003,9.538879e+001
2.468437e+003,9.540731e+001
2.470366e+003,9.542573e+001
2.472294e+003,9.544299e+001
2.474223e+003,9.545821e+001
2.476151e+003,9.547080e+001
2.478080e+003,9.548058e+001
2.480008e+003,9.548772e+001
2.481937e+003,9.549292e+001
2.483865e+003,9.549707e+001
2.485793e+003,9.550103e+001
2.487722e+003,9.550550e+001
2.489650e+003,9.551069e+001
2.491579e+003,9.551636e+001
2.493507e+003,9.552187e+001
2.495436e+003,9.552662e+001
2.497364e+003,9.553041e+001
2.499293e+003,9.553346e+001
2.501221e+003,9.553650e+001
2.503150e+003,9.554023e+001
2.505078e+003,9.554535e+001
2.507007e+003,9.555192e+001
2.508935e+003,9.555956e+001
2.510864e+003,9.556744e+001
2.512792e+003,9.557484e+001
2.514720e+003,9.558100e+001
2.516649e+003,9.558553e+001
2.518577e+003,9.558821e+001
2.520506e+003,9.558886e+001
2.522434e+003,9.558731e+001
2.524363e+003,9.558347e+001
2.526291e+003,9.557738e+001
2.528220e+003,9.556940e+001
2.530148e+003,9.556011e+001
2.532077e+003,9.555027e+001
2.534005e+003,9.554047e+001
2.535934e+003,9.553107e+001
2.537862e+003,9.552206e+001
2.539791e+003,9.551326e+001
2.541719e+003,9.550433e+001
2.543647e+003,9.549500e+001
2.545576e+003,9.548495e+001
2.547504e+003,9.547387e+001
2.549433e+003,9.546140e+001
2.551361e+003,9.544728e+001
2.553290e+003,9.543148e+001
2.555218e+003,9.541450e+001
2.557147e+003,9.539738e+001
2.559075e+003,9.538152e+001
2.561004e+003,9.536787e+001
2.562932e+003,9.535661e+001
2.564861e+003,9.534656e+001
2.566789e+003,9.533553e+001
2.568718e+003,9.532073e+001
2.570646e+003,9.530006e+001
2.572574e+003,9.527282e+001
2.574503e+003,9.524004e+001
2.576431e+003,9.520412e+001
2.578360e+003,9.516799e+001
2.580288e+003,9.513409e+001
2.582217e+003,9.510341e+001
2.584145e+003,9.507557e+001
2.586074e+003,9.504916e+001
2.588002e+003,9.502268e+001
2.589931e+003,9.499500e+001
2.591859e+003,9.496589e+001
2.593788e+003,9.493568e+001
2.595716e+003,9.490503e+001
2.597645e+003,9.487431e+001
2.599573e+003,9.484351e+001
2.601501e+003,9.481248e+001
2.603430e+003,9.478120e+001
2.605358e+003,9.475012e+001
2.607287e+003,9.472000e+001
2.609215e+003,9.469162e+001
2.611144e+003,9.466515e+001
2.613072e+003,9.463991e+001
2.615001e+003,9.461440e+001
2.616929e+003,9.458644e+001
2.618858e+003,9.455407e+001
2.620786e+003,9.451601e+001
2.622715e+003,9.447206e+001
2.624643e+003,9.442298e+001
2.626572e+003,9.437027e+001
2.628500e+003,9.431565e+001
2.630428e+003,9.426067e+001
2.632357e+003,9.420656e+001
2.634285e+003,9.415411e+001
2.636214e+003,9.410367e+001
2.638142e+003,9.405521e+001
2.640071e+003,9.400822e+001
2.641999e+003,9.396187e+001
2.643928e+003,9.391500e+001
2.645856e+003,9.386663e+001
2.647785e+003,9.381615e+001
2.649713e+003,9.376373e+001
2.651642e+003,9.371024e+001
2.653570e+003,9.365714e+001
2.655499e+003,9.360605e+001
2.657427e+003,9.355813e+001
2.659355e+003,9.351389e+001
2.661284e+003,9.347298e+001
2.663212e+003,9.343453e+001
2.665141e+003,9.339754e+001
2.667069e+003,9.336123e+001
2.668998e+003,9.332554e+001
2.670926e+003,9.329097e+001
2.672855e+003,9.325828e+001
2.674783e+003,9.322817e+001
2.676712e+003,9.320085e+001
2.678640e+003,9.317581e+001
2.680569e+003,9.315198e+001
2.682497e+003,9.312798e+001
2.684426e+003,9.310255e+001
2.686354e+003,9.307489e+001
2.688282e+003,9.304466e+001
2.690211e+003,9.301213e+001
2.692139e+003,9.297781e+001
2.694068e+003,9.294241e+001
2.695996e+003,9.290646e+001
2.697925e+003,9.287041e+001
2.699853e+003,9.283443e+001
2.701782e+003,9.279860e+001
2.703710e+003,9.276285e+001
2.705639e+003,9.272723e+001
2.707567e+003,9.269198e+001
2.709496e+003,9.265752e+001
2.711424e+003,9.262444e+001
2.713353e+003,9.259343e+001
2.715281e+003,9.256500e+001
2.717209e+003,9.253934e+001
2.719138e+003,9.251610e+001
2.721066e+003,9.249471e+001
2.722995e+003,9.247438e+001
2.724923e+003,9.245448e+001
2.726852e+003,9.243471e+001
2.728780e+003,9.241525e+001
2.730709e+003,9.239638e+001
2.732637e+003,9.237833e+001
2.734566e+003,9.236090e+001
2.736494e+003,9.234340e+001
2.738423e+003,9.232493e+001
2.740351e+003,9.230453e+001
2.742280e+003,9.228180e+001
2.744208e+003,9.225705e+001
2.746136e+003,9.223125e+001
2.748065e+003,9.220560e+001
2.749993e+003,9.218114e+001
2.751922e+003,9.215833e+001
2.753850e+003,9.213697e+001
2.755779e+003,9.211649e+001
2.757707e+003,9.209619e+001
2.759636e+003,9.207579e+001
2.761564e+003,9.205530e+001
2.763493e+003,9.203502e+001
2.765421e+003,9.201520e+001
2.767350e+003,9.199570e+001
2.769278e+003,9.197599e+001
2.771207e+003,9.195528e+001
2.773135e+003,9.193302e+001
2.775063e+003,9.190903e+001
2.776992e+003,9.188387e+001
2.778920e+003,9.185841e+001
2.780849e+003,9.183345e+001
2.782777e+003,9.180931e+001
2.784706e+003,9.178555e+001
2.786634e+003,9.176136e+001
2.788563e+003,9.173569e+001
2.790491e+003,9.170795e+001
2.792420e+003,9.167819e+001
2.794348e+003,9.164693e+001
2.796277e+003,9.161497e+001
2.798205e+003,9.158260e+001
2.800134e+003,9.154958e+001
2.802062e+003,9.151495e+001
2.803990e+003,9.147749e+001
2.805919e+003,9.143610e+001
2.807847e+003,9.139022e+001
2.809776e+003,9.134003e+001
2.811704e+003,9.128609e+001
2.813633e+003,9.122906e+001
2.815561e+003,9.116938e+001
2.817490e+003,9.110732e+001
2.819418e+003,9.104289e+001
2.821347e+003,9.097621e+001
2.823275e+003,9.090739e+001
2.825204e+003,9.083614e+001
2.827132e+003,9.076125e+001
2.829061e+003,9.068008e+001
2.830989e+003,9.058860e+001
2.832917e+003,9.048183e+001
2.834846e+003,9.035567e+001
2.836774e+003,9.020837e+001
2.838703e+003,9.004228e+001
2.840631e+003,8.986401e+001
2.842560e+003,8.968452e+001
2.844488e+003,8.951704e+001
2.846417e+003,8.937338e+001
2.848345e+003,8.926255e+001
2.850274e+003,8.918770e+001
2.852202e+003,8.914616e+001
2.854131e+003,8.913021e+001
2.856059e+003,8.912991e+001
2.857988e+003,8.913575e+001
2.859916e+003,8.914019e+001
2.861844e+003,8.913948e+001
2.863773e+003,8.913288e+001
2.865701e+003,8.912170e+001
2.867630e+003,8.910767e+001
2.869558e+003,8.909167e+001
2.871487e+003,8.907301e+001
2.873415e+003,8.904940e+001
2.875344e+003,8.901759e+001
2.877272e+003,8.897457e+001
2.879201e+003,8.891868e+001
2.881129e+003,8.885009e+001
2.883058e+003,8.877104e+001
2.884986e+003,8.868534e+001
2.886915e+003,8.859780e+001
2.888843e+003,8.851273e+001
2.890771e+003,8.843353e+001
2.892700e+003,8.836180e+001
2.894628e+003,8.829729e+001
2.896557e+003,8.823792e+001
2.898485e+003,8.818047e+001
2.900414e+003,8.812162e+001
2.902342e+003,8.805868e+001
2.904271e+003,8.799084e+001
2.906199e+003,8.791991e+001
2.908128e+003,8.785099e+001
2.910056e+003,8.779170e+001
2.911985e+003,8.775137e+001
2.913913e+003,8.773949e+001
2.915842e+003,8.776263e+001
2.917770e+003,8.782324e+001
2.919698e+003,8.791783e+001
2.921627e+003,8.803829e+001
2.923555e+003,8.817249e+001
2.925484e+003,8.830775e+001
2.927412e+003,8.843410e+001
2.929341e+003,8.854495e+001
2.931269e+003,8.863837e+001
2.933198e+003,8.871592e+001
2.935126e+003,8.878121e+001
2.937055e+003,8.883822e+001
2.938983e+003,8.889046e+001
2.940912e+003,8.894076e+001
2.942840e+003,8.899110e+001
2.944769e+003,8.904297e+001
2.946697e+003,8.909692e+001
2.948625e+003,8.915232e+001
2.950554e+003,8.920643e+001
2.952482e+003,8.925477e+001
2.954411e+003,8.929233e+001
2.956339e+003,8.931517e+001
2.958268e+003,8.932295e+001
2.960196e+003,8.932049e+001
2.962125e+003,8.931822e+001
2.964053e+003,8.932927e+001
2.965982e+003,8.936686e+001
2.967910e+003,8.944041e+001
2.969839e+003,8.955198e+001
2.971767e+003,8.969589e+001
2.973696e+003,8.985969e+001
2.975624e+003,9.002840e+001
2.977552e+003,9.018633e+001
2.979481e+003,9.032142e+001
2.981409e+003,9.042701e+001
2.983338e+003,9.050145e+001
2.985266e+003,9.054741e+001
2.987195e+003,9.056996e+001
2.989123e+003,9.057504e+001
2.991052e+003,9.056754e+001
2.992980e+003,9.055112e+001
2.994909e+003,9.052814e+001
2.996837e+003,9.049985e+001
2.998766e+003,9.046687e+001
3.000694e+003,9.042951e+001
3.002623e+003,9.038766e+001
3.004551e+003,9.034101e+001
3.006479e+003,9.028883e+001
3.008408e+003,9.023032e+001
3.010336e+003,9.016467e+001
3.012265e+003,9.009144e+001
3.014193e+003,9.001081e+001
3.016122e+003,8.992395e+001
3.018050e+003,8.983289e+001
3.019979e+003,8.974066e+001
3.021907e+003,8.965131e+001
3.023836e+003,8.956889e+001
3.025764e+003,8.949754e+001
3.027693e+003,8.944038e+001
3.029621e+003,8.939883e+001
3.031550e+003,8.937241e+001
3.033478e+003,8.935881e+001
3.035406e+003,8.935453e+001
3.037335e+003,8.935553e+001
3.039263e+003,8.935842e+001
3.041192e+003,8.936096e+001
3.043120e+003,8.936218e+001
3.045049e+003,8.936217e+001
3.046977e+003,8.936153e+001
3.048906e+003,8.936059e+001
3.050834e+003,8.935913e+001
3.052763e+003,8.935592e+001
3.054691e+003,8.934895e+001
3.056620e+003,8.933600e+001
3.058548e+003,8.931499e+001
3.060477e+003,8.928458e+001
3.062405e+003,8.924455e+001
3.064333e+003,8.919570e+001
3.066262e+003,8.913963e+001
3.068190e+003,8.907833e+001
3.070119e+003,8.901366e+001
3.072047e+003,8.894693e+001
3.073976e+003,8.887875e+001
3.075904e+003,8.880909e+001
3.077833e+003,8.873743e+001
3.079761e+003,8.866319e+001
3.081690e+003,8.858588e+001
3.083618e+003,8.850525e+001
3.085547e+003,8.842130e+001
3.087475e+003,8.833410e+001
3.089404e+003,8.824364e+001
3.091332e+003,8.814986e+001
3.093260e+003,8.805279e+001
3.095189e+003,8.795256e+001
3.097117e+003,8.784972e+001
3.099046e+003,8.774502e+001
3.100974e+003,8.763933e+001
3.102903e+003,8.753336e+001
3.104831e+003,8.742721e+001
3.106760e+003,8.732043e+001
3.108688e+003,8.721209e+001
3.110617e+003,8.710105e+001
3.112545e+003,8.698625e+001
3.114474e+003,8.686700e+001
3.116402e+003,8.674310e+001
3.118331e+003,8.661469e+001
3.120259e+003,8.648205e+001
3.122188e+003,8.634544e+001
3.124116e+003,8.620528e+001
3.126044e+003,8.606205e+001
3.127973e+003,8.591661e+001
3.129901e+003,8.577020e+001
3.131830e+003,8.562392e+001
3.133758e+003,8.547882e+001
3.135687e+003,8.533508e+001
3.137615e+003,8.519212e+001
3.139544e+003,8.504845e+001
3.141472e+003,8.490231e+001
3.143401e+003,8.475198e+001
3.145329e+003,8.459628e+001
3.147258e+003,8.443496e+001
3.149186e+003,8.426859e+001
3.151115e+003,8.409830e+001
3.153043e+003,8.392552e+001
3.154971e+003,8.375169e+001
3.156900e+003,8.357799e+001
3.158828e+003,8.340501e+001
3.160757e+003,8.323281e+001
3.162685e+003,8.306050e+001
3.164614e+003,8.288662e+001
3.166542e+003,8.270900e+001
3.168471e+003,8.252560e+001
3.170399e+003,8.233517e+001
3.172328e+003,8.213783e+001
3.174256e+003,8.193525e+001
3.176185e+003,8.173050e+001
3.178113e+003,8.152729e+001
3.180042e+003,8.132859e+001
3.181970e+003,8.113612e+001
3.183898e+003,8.094979e+001
3.185827e+003,8.076805e+001
3.187755e+003,8.058855e+001
3.189684e+003,8.040894e+001
3.191612e+003,8.022753e+001
3.193541e+003,8.004327e+001
3.195469e+003,7.985577e+001
3.197398e+003,7.966482e+001
3.199326e+003,7.947048e+001
3.201255e+003,7.927312e+001
3.203183e+003,7.907365e+001
3.205112e+003,7.887365e+001
3.207040e+003,7.867499e+001
3.208969e+003,7.847934e+001
3.210897e+003,7.828745e+001
3.212825e+003,7.809891e+001
3.214754e+003,7.791212e+001
3.216682e+003,7.772531e+001
3.218611e+003,7.753743e+001
3.220539e+003,7.734873e+001
3.222468e+003,7.716071e+001
3.224396e+003,7.697551e+001
3.226325e+003,7.679465e+001
3.228253e+003,7.661826e+001
3.230182e+003,7.644489e+001
3.232110e+003,7.627200e+001
3.234039e+003,7.609718e+001
3.235967e+003,7.591900e+001
3.237896e+003,7.573756e+001
3.239824e+003,7.555391e+001
3.241752e+003,7.536933e+001
3.243681e+003,7.518437e+001
3.245609e+003,7.499836e+001
3.247538e+003,7.480975e+001
3.249466e+003,7.461714e+001
3.251395e+003,7.442009e+001
3.253323e+003,7.421975e+001
3.255252e+003,7.401880e+001
3.257180e+003,7.382089e+001
3.259109e+003,7.362978e+001
3.261037e+003,7.344859e+001
3.262966e+003,7.327987e+001
3.264894e+003,7.312524e+001
3.266823e+003,7.298569e+001
3.268751e+003,7.286126e+001
3.270679e+003,7.275079e+001
3.272608e+003,7.265190e+001
3.274536e+003,7.256104e+001
3.276465e+003,7.247471e+001
3.278393e+003,7.239059e+001
3.280322e+003,7.230833e+001
3.282250e+003,7.222988e+001
3.284179e+003,7.215868e+001
3.286107e+003,7.209827e+001
3.288036e+003,7.205054e+001
3.289964e+003,7.201531e+001
3.291893e+003,7.199024e+001
3.293821e+003,7.197215e+001
3.295750e+003,7.195806e+001
3.297678e+003,7.194621e+001
3.299606e+003,7.193571e+001
3.301535e+003,7.192580e+001
3.303463e+003,7.191476e+001
3.305392e+003,7.189916e+001
3.307320e+003,7.187425e+001
3.309249e+003,7.183540e+001
3.311177e+003,7.177901e+001
3.313106e+003,7.170370e+001
3.315034e+003,7.161027e+001
3.316963e+003,7.150127e+001
3.318891e+003,7.137988e+001
3.320820e+003,7.124934e+001
3.322748e+003,7.111369e+001
3.324677e+003,7.097788e+001
3.326605e+003,7.084866e+001
3.328533e+003,7.073493e+001
3.330462e+003,7.064556e+001
3.332390e+003,7.058868e+001
3.334319e+003,7.056933e+001
3.336247e+003,7.058867e+001
3.338176e+003,7.064448e+001
3.340104e+003,7.073254e+001
3.342033e+003,7.084877e+001
3.343961e+003,7.098964e+001
3.345890e+003,7.115260e+001
3.347818e+003,7.133493e+001
3.349747e+003,7.153236e+001
3.351675e+003,7.173908e+001
3.353604e+003,7.194799e+001
3.355532e+003,7.215204e+001
3.357460e+003,7.234659e+001
3.359389e+003,7.252983e+001
3.361317e+003,7.270310e+001
3.363246e+003,7.286958e+001
3.365174e+003,7.303305e+001
3.367103e+003,7.319633e+001
3.369031e+003,7.336104e+001
3.370959e+003,7.352765e+001
3.372888e+003,7.369615e+001
3.374816e+003,7.386656e+001
3.376745e+003,7.403873e+001
3.378673e+003,7.421210e+001
3.380602e+003,7.438554e+001
3.382530e+003,7.455726e+001
3.384459e+003,7.472569e+001
3.386387e+003,7.489022e+001
3.388316e+003,7.505170e+001
3.390244e+003,7.521209e+001
3.392173e+003,7.537383e+001
3.394101e+003,7.553855e+001
3.396030e+003,7.570645e+001
3.397958e+003,7.587661e+001
3.399886e+003,7.604798e+001
3.401815e+003,7.622069e+001
3.403743e+003,7.639701e+001
3.405672e+003,7.658081e+001
3.407600e+003,7.677648e+001
3.409529e+003,7.698720e+001
3.411457e+003,7.721336e+001
3.413386e+003,7.745228e+001
3.415314e+003,7.769897e+001
3.417243e+003,7.794810e+001
3.419171e+003,7.819513e+001
3.421100e+003,7.843757e+001
3.423028e+003,7.867482e+001
3.424957e+003,7.890736e+001
3.426885e+003,7.913577e+001
3.428813e+003,7.936035e+001
3.430742e+003,7.958117e+001
3.432670e+003,7.979860e+001
3.434599e+003,8.001379e+001
3.436527e+003,8.022856e+001
3.438456e+003,8.044476e+001
3.440384e+003,8.066365e+001
3.442313e+003,8.088533e+001
3.444241e+003,8.110883e+001
3.446170e+003,8.133286e+001
3.448098e+003,8.155663e+001
3.450027e+003,8.178045e+001
3.451955e+003,8.200552e+001
3.453884e+003,8.223329e+001
3.455812e+003,8.246453e+001
3.457740e+003,8.269897e+001
3.459669e+003,8.293544e+001
3.461597e+003,8.317252e+001
3.463526e+003,8.340919e+001
3.465454e+003,8.364541e+001
3.467383e+003,8.388174e+001
3.469311e+003,8.411880e+001
3.471240e+003,8.435670e+001
3.473168e+003,8.459485e+001
3.475097e+003,8.483234e+001
3.477025e+003,8.506885e+001
3.478954e+003,8.530499e+001
3.480882e+003,8.554212e+001
3.482811e+003,8.578188e+001
3.484739e+003,8.602480e+001
3.486667e+003,8.626984e+001
3.488596e+003,8.651432e+001
3.490524e+003,8.675491e+001
3.492453e+003,8.698915e+001
3.494381e+003,8.721634e+001
3.496310e+003,8.743793e+001
3.498238e+003,8.765681e+001
3.500167e+003,8.787626e+001
3.502095e+003,8.809843e+001
3.504024e+003,8.832366e+001
3.505952e+003,8.855100e+001
3.507881e+003,8.877873e+001
3.509809e+003,8.900551e+001
3.511738e+003,8.923050e+001
3.513666e+003,8.945360e+001
3.515594e+003,8.967443e+001
3.517523e+003,8.989223e+001
3.519451e+003,9.010602e+001
3.521380e+003,9.031487e+001
3.523308e+003,9.051889e+001
3.525237e+003,9.071931e+001
3.527165e+003,9.091830e+001
3.529094e+003,9.111766e+001
3.531022e+003,9.131793e+001
3.532951e+003,9.151792e+001
3.534879e+003,9.171542e+001
3.536808e+003,9.190824e+001
3.538736e+003,9.209538e+001
3.540665e+003,9.227788e+001
3.542593e+003,9.245847e+001
3.544521e+003,9.264030e+001
3.546450e+003,9.282518e+001
3.548378e+003,9.301260e+001
3.550307e+003,9.320005e+001
3.552235e+003,9.338432e+001
3.554164e+003,9.356282e+001
3.556092e+003,9.373512e+001
3.558021e+003,9.390289e+001
3.559949e+003,9.406898e+001
3.561878e+003,9.423588e+001
3.563806e+003,9.440414e+001
3.565735e+003,9.457203e+001
3.567663e+003,9.473615e+001
3.569592e+003,9.489346e+001
3.571520e+003,9.504246e+001
3.573448e+003,9.518397e+001
3.575377e+003,9.532044e+001
3.577305e+003,9.545510e+001
3.579234e+003,9.559131e+001
3.581162e+003,9.573210e+001
3.583091e+003,9.587992e+001
3.585019e+003,9.603675e+001
3.586948e+003,9.620366e+001
3.588876e+003,9.638007e+001
3.590805e+003,9.656330e+001
3.592733e+003,9.674844e+001
3.594662e+003,9.692943e+001
3.596590e+003,9.710013e+001
3.598519e+003,9.725621e+001
3.600447e+003,9.739678e+001
3.602375e+003,9.752433e+001
3.604304e+003,9.764458e+001
3.606232e+003,9.776436e+001
3.608161e+003,9.789002e+001
3.610089e+003,9.802480e+001
3.612018e+003,9.816833e+001
3.613946e+003,9.831776e+001
3.615875e+003,9.847003e+001
3.617803e+003,9.862349e+001
3.619732e+003,9.877882e+001
3.621660e+003,9.893773e+001
3.623589e+003,9.910104e+001
3.625517e+003,9.926683e+001
3.627446e+003,9.943046e+001
3.629374e+003,9.958562e+001
3.631302e+003,9.972716e+001
3.633231e+003,9.985303e+001
3.635159e+003,9.996431e+001
3.637088e+003,1.000644e+002
3.639016e+003,1.001578e+002
3.640945e+003,1.002490e+002
3.642873e+003,1.003421e+002
3.644802e+003,1.004404e+002
3.646730e+003,1.005459e+002
3.648659e+003,1.006584e+002
3.650587e+003,1.007755e+002
3.652516e+003,1.008935e+002
3.654444e+003,1.010081e+002
3.656373e+003,1.011159e+002
3.658301e+003,1.012146e+002
3.660229e+003,1.013032e+002
3.662158e+003,1.013822e+002
3.664086e+003,1.014538e+002
3.666015e+003,1.015216e+002
3.667943e+003,1.015904e+002
3.669872e+003,1.016632e+002
3.671800e+003,1.017403e+002
3.673729e+003,1.018182e+002
3.675657e+003,1.018914e+002
3.677586e+003,1.019547e+002
3.679514e+003,1.020052e+002
3.681443e+003,1.020429e+002
3.683371e+003,1.020701e+002
3.685300e+003,1.020903e+002
3.687228e+003,1.021079e+002
3.689156e+003,1.021266e+002
3.691085e+003,1.021490e+002
3.693013e+003,1.021761e+002
3.694942e+003,1.022075e+002
3.696870e+003,1.022419e+002
3.698799e+003,1.022774e+002
3.700727e+003,1.023117e+002
3.702656e+003,1.023422e+002
3.704584e+003,1.023661e+002
3.706513e+003,1.023813e+002
3.708441e+003,1.023869e+002
3.710370e+003,1.023846e+002
3.712298e+003,1.023774e+002
3.714227e+003,1.023689e+002
3.716155e+003,1.023623e+002
3.718083e+003,1.023590e+002
3.720012e+003,1.023592e+002
3.721940e+003,1.023614e+002
3.723869e+003,1.023644e+002
3.725797e+003,1.023670e+002
3.727726e+003,1.023691e+002
3.729654e+003,1.023719e+002
3.731583e+003,1.023771e+002
3.733511e+003,1.023863e+002
3.735440e+003,1.024000e+002
3.737368e+003,1.024171e+002
3.739297e+003,1.024353e+002
3.741225e+003,1.024517e+002
3.743154e+003,1.024640e+002
3.745082e+003,1.024712e+002
3.747010e+003,1.024743e+002
3.748939e+003,1.024756e+002
3.750867e+003,1.024779e+002
3.752796e+003,1.024827e+002
3.754724e+003,1.024907e+002
3.756653e+003,1.025014e+002
3.758581e+003,1.025134e+002
3.760510e+003,1.025256e+002
3.762438e+003,1.025371e+002
3.764367e+003,1.025471e+002
3.766295e+003,1.025560e+002
3.768224e+003,1.025639e+002
3.770152e+003,1.025717e+002
3.772081e+003,1.025802e+002
3.774009e+003,1.025900e+002
3.775938e+003,1.026014e+002
3.777866e+003,1.026145e+002
3.779794e+003,1.026284e+002
3.781723e+003,1.026418e+002
3.783651e+003,1.026527e+002
3.785580e+003,1.026591e+002
3.787508e+003,1.026593e+002
3.789437e+003,1.026526e+002
3.791365e+003,1.026395e+002
3.793294e+003,1.026220e+002
3.795222e+003,1.026038e+002
3.797151e+003,1.025894e+002
3.799079e+003,1.025823e+002
3.801008e+003,1.025834e+002
3.802936e+003,1.025905e+002
3.804865e+003,1.025988e+002
3.806793e+003,1.026037e+002
3.808721e+003,1.026020e+002
3.810650e+003,1.025938e+002
3.812578e+003,1.025818e+002
3.814507e+003,1.025714e+002
3.816435e+003,1.025678e+002
3.818364e+003,1.025747e+002
3.820292e+003,1.025914e+002
3.822221e+003,1.026135e+002
3.824149e+003,1.026348e+002
3.826078e+003,1.026502e+002
3.828006e+003,1.026568e+002
3.829935e+003,1.026546e+002
3.831863e+003,1.026470e+002
3.833792e+003,1.026389e+002
3.835720e+003,1.026346e+002
3.837648e+003,1.026364e+002
3.839577e+003,1.026431e+002
3.841505e+003,1.026516e+002
3.843434e+003,1.026582e+002
3.845362e+003,1.026599e+002
3.847291e+003,1.026556e+002
3.849219e+003,1.026462e+002
3.851148e+003,1.026338e+002
3.853076e+003,1.026205e+002
3.855005e+003,1.026074e+002
3.856933e+003,1.025944e+002
3.858862e+003,1.025806e+002
3.860790e+003,1.025651e+002
3.862719e+003,1.025486e+002
3.864647e+003,1.025332e+002
3.866575e+003,1.025220e+002
3.868504e+003,1.025180e+002
3.870432e+003,1.025231e+002
3.872361e+003,1.025370e+002
3.874289e+003,1.025581e+002
3.876218e+003,1.025839e+002
3.878146e+003,1.026118e+002
3.880075e+003,1.026399e+002
3.882003e+003,1.026669e+002
3.883932e+003,1.026917e+002
3.885860e+003,1.027138e+002
3.887789e+003,1.027328e+002
3.889717e+003,1.027479e+002
3.891646e+003,1.027592e+002
3.893574e+003,1.027667e+002
3.895502e+003,1.027710e+002
3.897431e+003,1.027731e+002
3.899359e+003,1.027746e+002
3.901288e+003,1.027763e+002
3.903216e+003,1.027787e+002
3.905145e+003,1.027814e+002
3.907073e+003,1.027832e+002
3.909002e+003,1.027832e+002
3.910930e+003,1.027809e+002
3.912859e+003,1.027763e+002
3.914787e+003,1.027704e+002
3.916716e+003,1.027647e+002
3.918644e+003,1.027610e+002
3.920573e+003,1.027603e+002
3.922501e+003,1.027631e+002
3.924429e+003,1.027684e+002
3.926358e+003,1.027746e+002
3.928286e+003,1.027799e+002
3.930215e+003,1.027827e+002
3.932143e+003,1.027821e+002
3.934072e+003,1.027782e+002
3.936000e+003,1.027717e+002
3.937929e+003,1.027638e+002
3.939857e+003,1.027556e+002
3.941786e+003,1.027477e+002
3.943714e+003,1.027405e+002
3.945643e+003,1.027339e+002
3.947571e+003,1.027277e+002
3.949500e+003,1.027216e+002
3.951428e+003,1.027159e+002
3.953356e+003,1.027112e+002
3.955285e+003,1.027082e+002
3.957213e+003,1.027078e+002
3.959142e+003,1.027108e+002
3.961070e+003,1.027172e+002
3.962999e+003,1.027266e+002
3.964927e+003,1.027376e+002
3.966856e+003,1.027486e+002
3.968784e+003,1.027575e+002
3.970713e+003,1.027628e+002
3.972641e+003,1.027635e+002
3.974570e+003,1.027594e+002
3.976498e+003,1.027511e+002
3.978427e+003,1.027399e+002
3.980355e+003,1.027271e+002
3.982283e+003,1.027142e+002
3.984212e+003,1.027025e+002
3.986140e+003,1.026927e+002
3.988069e+003,1.026855e+002
3.989997e+003,1.026812e+002
3.991926e+003,1.026798e+002
3.993854e+003,1.026812e+002
3.995783e+003,1.026847e+002
3.997711e+003,1.026891e+002
3.999640e+003,1.026930e+002
4.001568e+003,0.000000e+000
