3.991926e+002,2.325487e+001
4.011211e+002,2.328861e+001
4.030496e+002,2.328794e+001
4.049780e+002,2.324069e+001
4.069065e+002,2.313441e+001
4.088350e+002,2.296681e+001
4.107634e+002,2.275251e+001
4.126919e+002,2.251863e+001
4.146204e+002,2.229727e+001
4.165488e+002,2.210876e+001
4.184773e+002,2.195315e+001
4.204058e+002,2.181116e+001
4.223342e+002,2.166059e+001
4.242627e+002,2.149125e+001
4.261912e+002,2.131338e+001
4.281196e+002,2.115063e+001
4.300481e+002,2.103078e+001
4.319766e+002,2.097294e+001
4.339050e+002,2.098042e+001
4.358335e+002,2.104222e+001
4.377620e+002,2.113747e+001
4.396904e+002,2.124520e+001
4.416189e+002,2.134992e+001
4.435474e+002,2.144556e+001
4.454758e+002,2.153124e+001
4.474043e+002,2.160513e+001
4.493328e+002,2.166070e+001
4.512612e+002,2.168572e+001
4.531897e+002,2.166673e+001
4.551182e+002,2.159587e+001
4.570466e+002,2.147378e+001
4.589751e+002,2.130941e+001
4.609036e+002,2.111398e+001
4.628320e+002,2.089579e+001
4.647605e+002,2.065681e+001
4.666890e+002,2.039545e+001
4.686174e+002,2.011281e+001
4.705459e+002,1.981873e+001
4.724744e+002,1.953415e+001
4.744028e+002,1.928896e+001
4.763313e+002,1.911135e+001
4.782598e+002,1.902313e+001
4.801882e+002,1.903419e+001
4.821167e+002,1.914302e+001
4.840452e+002,1.934238e+001
4.859736e+002,1.962448e+001
4.879021e+002,1.998415e+001
4.898306e+002,2.041796e+001
4.917590e+002,2.092103e+001
4.936875e+002,2.148378e+001
4.956160e+002,2.208949e+001
4.975444e+002,2.271822e+001
4.994729e+002,2.334999e+001
5.014014e+002,2.396940e+001
5.033298e+002,2.456978e+001
5.052583e+002,2.515197e+001
5.071868e+002,2.572199e+001
5.091152e+002,2.628696e+001
5.110437e+002,2.685340e+001
5.129722e+002,2.742634e+001
5.149006e+002,2.800995e+001
5.168291e+002,2.860869e+001
5.187576e+002,2.922554e+001
5.206860e+002,2.985943e+001
5.226145e+002,3.050178e+001
5.245430e+002,3.113640e+001
5.264714e+002,3.174092e+001
5.283999e+002,3.229150e+001
5.303284e+002,3.277045e+001
5.322568e+002,3.316743e+001
5.341853e+002,3.348072e+001
5.361138e+002,3.371437e+001
5.380422e+002,3.387426e+001
5.399707e+002,3.396572e+001
5.418992e+002,3.399363e+001
5.438276e+002,3.396596e+001
5.457561e+002,3.389695e+001
5.476846e+002,3.380933e+001
5.496130e+002,3.373456e+001
5.515415e+002,3.370448e+001
5.534700e+002,3.374686e+001
5.553984e+002,3.387834e+001
5.573269e+002,3.410044e+001
5.592554e+002,3.440120e+001
5.611838e+002,3.475900e+001
5.631123e+002,3.514968e+001
5.650408e+002,3.554852e+001
5.669692e+002,3.593514e+001
5.688977e+002,3.629478e+001
5.708262e+002,3.661720e+001
5.727546e+002,3.689861e+001
5.746831e+002,3.714178e+001
5.766116e+002,3.735689e+001
5.785400e+002,3.755937e+001
5.804685e+002,3.776835e+001
5.823970e+002,3.800195e+001
5.843254e+002,3.827143e+001
5.862539e+002,3.857907e+001
5.881824e+002,3.891616e+001
5.901108e+002,3.926604e+001
5.920393e+002,3.960594e+001
5.939678e+002,3.991327e+001
5.958962e+002,4.016985e+001
5.978247e+002,4.036345e+001
5.997532e+002,4.049118e+001
6.016816e+002,4.055967e+001
6.036101e+002,4.058541e+001
6.055386e+002,4.059103e+001
6.074670e+002,4.060376e+001
6.093955e+002,4.064967e+001
6.113240e+002,4.074636e+001
6.132524e+002,4.090052e+001
6.151809e+002,4.110478e+001
6.171094e+002,4.134104e+001
6.190378e+002,4.158413e+001
6.209663e+002,4.181062e+001
6.228948e+002,4.200436e+001
6.248232e+002,4.215779e+001
6.267517e+002,4.227178e+001
6.286802e+002,4.235156e+001
6.306086e+002,4.240290e+001
6.325371e+002,4.242897e+001
6.344656e+002,4.243000e+001
6.363940e+002,4.240393e+001
6.383225e+002,4.234787e+001
6.402510e+002,4.225826e+001
6.421794e+002,4.213057e+001
6.441079e+002,4.195916e+001
6.460364e+002,4.173725e+001
6.479648e+002,4.146032e+001
6.498933e+002,4.112996e+001
6.518218e+002,4.075856e+001
6.537502e+002,4.036956e+001
6.556787e+002,3.999744e+001
6.576072e+002,3.968488e+001
6.595356e+002,3.947268e+001
6.614641e+002,3.939798e+001
6.633926e+002,3.948455e+001
6.653210e+002,3.973588e+001
6.672495e+002,4.013138e+001
6.691780e+002,4.062927e+001
6.711064e+002,4.117861e+001
6.730349e+002,4.172790e+001
6.749634e+002,4.223915e+001
6.768918e+002,4.268914e+001
6.788203e+002,4.306523e+001
6.807488e+002,4.336269e+001
6.826772e+002,4.358023e+001
6.846057e+002,4.371932e+001
6.865342e+002,4.378500e+001
6.884626e+002,4.378681e+001
6.903911e+002,4.373843e+001
6.923196e+002,4.365512e+001
6.942480e+002,4.355355e+001
6.961765e+002,4.344936e+001
6.981050e+002,4.335659e+001
7.000334e+002,4.328924e+001
7.019619e+002,4.325938e+001
7.038904e+002,4.327679e+001
7.058188e+002,4.334790e+001
7.077473e+002,4.347390e+001
7.096758e+002,4.365104e+001
7.116042e+002,4.387104e+001
7.135327e+002,4.412357e+001
7.154612e+002,4.439660e+001
7.173896e+002,4.467812e+001
7.193181e+002,4.495716e+001
7.212466e+002,4.522244e+001
7.231750e+002,4.546320e+001
7.251035e+002,4.566958e+001
7.270320e+002,4.583269e+001
7.289604e+002,4.594708e+001
7.308889e+002,4.601118e+001
7.328174e+002,4.602820e+001
7.347458e+002,4.600499e+001
7.366743e+002,4.595079e+001
7.386028e+002,4.587494e+001
7.405313e+002,4.578447e+001
7.424597e+002,4.568416e+001
7.443882e+002,4.557632e+001
7.463167e+002,4.546174e+001
7.482451e+002,4.534066e+001
7.501736e+002,4.521307e+001
7.521021e+002,4.507866e+001
7.540305e+002,4.493606e+001
7.559590e+002,4.478330e+001
7.578875e+002,4.461791e+001
7.598159e+002,4.443771e+001
7.617444e+002,4.424163e+001
7.636729e+002,4.402957e+001
7.656013e+002,4.380190e+001
7.675298e+002,4.355841e+001
7.694582e+002,4.329741e+001
7.713867e+002,4.301551e+001
7.733151e+002,4.270873e+001
7.752436e+002,4.237321e+001
7.771721e+002,4.200699e+001
7.791005e+002,4.161081e+001
7.810290e+002,4.118890e+001
7.829575e+002,4.074830e+001
7.848859e+002,4.029942e+001
7.868144e+002,3.985682e+001
7.887429e+002,3.943765e+001
7.906713e+002,3.906323e+001
7.925998e+002,3.875664e+001
7.945283e+002,3.853764e+001
7.964567e+002,3.842018e+001
7.983852e+002,3.840637e+001
8.003137e+002,3.848526e+001
8.022421e+002,3.863205e+001
8.041706e+002,3.881423e+001
8.060991e+002,3.899740e+001
8.080275e+002,3.914882e+001
8.099560e+002,3.924483e+001
8.118845e+002,3.927020e+001
8.138129e+002,3.921796e+001
8.157414e+002,3.908825e+001
8.176699e+002,3.888662e+001
8.195983e+002,3.862344e+001
8.215268e+002,3.831231e+001
8.234553e+002,3.797107e+001
8.253837e+002,3.761880e+001
8.273122e+002,3.727263e+001
8.292407e+002,3.694630e+001
8.311691e+002,3.664599e+001
8.330976e+002,3.636992e+001
8.350261e+002,3.610853e+001
8.369545e+002,3.584792e+001
8.388830e+002,3.557250e+001
8.408115e+002,3.526941e+001
8.427399e+002,3.493317e+001
8.446684e+002,3.456818e+001
8.465969e+002,3.419067e+001
8.485253e+002,3.382602e+001
8.504538e+002,3.350834e+001
8.523823e+002,3.327200e+001
8.543107e+002,3.314381e+001
8.562392e+002,3.313801e+001
8.581677e+002,3.324958e+001
8.600961e+002,3.345457e+001
8.620246e+002,3.371236e+001
8.639531e+002,3.397796e+001
8.658815e+002,3.420739e+001
8.678100e+002,3.436684e+001
8.697385e+002,3.443941e+001
8.716669e+002,3.442289e+001
8.735954e+002,3.432748e+001
8.755239e+002,3.416882e+001
8.774523e+002,3.396404e+001
8.793808e+002,3.372660e+001
8.813093e+002,3.346500e+001
8.832377e+002,3.318416e+001
8.851662e+002,3.288617e+001
8.870947e+002,3.257204e+001
8.890231e+002,3.224252e+001
8.909516e+002,3.189837e+001
8.928801e+002,3.154069e+001
8.948085e+002,3.117118e+001
8.967370e+002,3.079209e+001
8.986655e+002,3.040629e+001
9.005939e+002,3.001607e+001
9.025224e+002,2.962180e+001
9.044509e+002,2.922035e+001
9.063793e+002,2.880470e+001
9.083078e+002,2.836493e+001
9.102363e+002,2.788953e+001
9.121647e+002,2.736905e+001
9.140932e+002,2.679797e+001
9.160217e+002,2.617585e+001
9.179501e+002,2.550705e+001
9.198786e+002,2.479964e+001
9.218071e+002,2.406384e+001
9.237355e+002,2.331011e+001
9.256640e+002,2.255011e+001
9.275925e+002,2.179607e+001
9.295209e+002,2.106014e+001
9.314494e+002,2.035508e+001
9.333779e+002,1.969155e+001
9.353063e+002,1.907707e+001
9.372348e+002,1.851580e+001
9.391633e+002,1.800853e+001
9.410917e+002,1.755437e+001
9.430202e+002,1.715244e+001
9.449487e+002,1.680269e+001
9.468771e+002,1.650584e+001
9.488056e+002,1.626245e+001
9.507341e+002,1.607188e+001
9.526625e+002,1.593223e+001
9.545910e+002,1.584120e+001
9.565195e+002,1.579744e+001
9.584479e+002,1.580160e+001
9.603764e+002,1.585589e+001
9.623049e+002,1.596243e+001
9.642333e+002,1.612107e+001
9.661618e+002,1.632775e+001
9.680903e+002,1.657414e+001
9.700187e+002,1.684896e+001
9.719472e+002,1.714150e+001
9.738757e+002,1.744254e+001
9.758041e+002,1.774549e+001
9.777326e+002,1.804561e+001
9.796611e+002,1.833698e+001
9.815895e+002,1.861126e+001
9.835180e+002,1.885793e+001
9.854465e+002,1.906542e+001
9.873749e+002,1.922602e+001
9.893034e+002,1.933897e+001
9.912319e+002,1.941268e+001
9.931603e+002,1.946260e+001
9.950888e+002,1.950866e+001
9.970173e+002,1.957004e+001
9.989457e+002,1.965952e+001
1.000874e+003,1.978280e+001
1.002803e+003,1.993808e+001
1.004731e+003,2.011907e+001
1.006660e+003,2.031684e+001
1.008588e+003,2.052252e+001
1.010517e+003,2.072808e+001
1.012445e+003,2.092560e+001
1.014373e+003,2.110851e+001
1.016302e+003,2.127274e+001
1.018230e+003,2.141938e+001
1.020159e+003,2.155674e+001
1.022087e+003,2.170179e+001
1.024016e+003,2.187809e+001
1.025944e+003,2.210819e+001
1.027873e+003,2.240896e+001
1.029801e+003,2.278327e+001
1.031730e+003,2.321785e+001
1.033658e+003,2.368291e+001
1.035587e+003,2.414019e+001
1.037515e+003,2.455276e+001
1.039444e+003,2.489229e+001
1.041372e+003,2.515000e+001
1.043301e+003,2.533934e+001
1.045229e+003,2.549695e+001
1.047157e+003,2.567268e+001
1.049086e+003,2.592540e+001
1.051014e+003,2.631140e+001
1.052943e+003,2.687107e+001
1.054871e+003,2.762659e+001
1.056800e+003,2.857553e+001
1.058728e+003,2.969393e+001
1.060657e+003,3.093862e+001
1.062585e+003,3.225860e+001
1.064514e+003,3.360417e+001
1.066442e+003,3.493100e+001
1.068371e+003,3.620942e+001
1.070299e+003,3.742284e+001
1.072228e+003,3.856555e+001
1.074156e+003,3.963851e+001
1.076084e+003,4.064448e+001
1.078013e+003,4.158424e+001
1.079941e+003,4.245512e+001
1.081870e+003,4.325093e+001
1.083798e+003,4.396364e+001
1.085727e+003,4.458537e+001
1.087655e+003,4.510868e+001
1.089584e+003,4.552803e+001
1.091512e+003,4.584004e+001
1.093441e+003,4.604388e+001
1.095369e+003,4.614286e+001
1.097298e+003,4.614618e+001
1.099226e+003,4.607109e+001
1.101155e+003,4.594109e+001
1.103083e+003,4.578681e+001
1.105011e+003,4.564144e+001
1.106940e+003,4.553387e+001
1.108868e+003,4.548783e+001
1.110797e+003,4.551688e+001
1.112725e+003,4.562457e+001
1.114654e+003,4.580684e+001
1.116582e+003,4.605538e+001
1.118511e+003,4.636097e+001
1.120439e+003,4.671524e+001
1.122368e+003,4.711161e+001
1.124296e+003,4.754314e+001
1.126225e+003,4.799984e+001
1.128153e+003,4.846783e+001
1.130082e+003,4.892681e+001
1.132010e+003,4.935206e+001
1.133938e+003,4.971924e+001
1.135867e+003,5.000522e+001
1.137795e+003,5.019411e+001
1.139724e+003,5.027943e+001
1.141652e+003,5.026441e+001
1.143581e+003,5.016161e+001
1.145509e+003,4.999154e+001
1.147438e+003,4.978261e+001
1.149366e+003,4.956651e+001
1.151295e+003,4.937955e+001
1.153223e+003,4.926022e+001
1.155151e+003,4.924260e+001
1.157080e+003,4.935626e+001
1.159008e+003,4.961904e+001
1.160937e+003,5.003291e+001
1.162865e+003,5.058218e+001
1.164794e+003,5.123507e+001
1.166722e+003,5.195019e+001
1.168651e+003,5.268016e+001
1.170579e+003,5.338457e+001
1.172508e+003,5.403383e+001
1.174436e+003,5.461166e+001
1.176365e+003,5.511557e+001
1.178293e+003,5.555233e+001
1.180222e+003,5.593329e+001
1.182150e+003,5.626912e+001
1.184078e+003,5.656854e+001
1.186007e+003,5.683737e+001
1.187935e+003,5.707991e+001
1.189864e+003,5.730140e+001
1.191792e+003,5.750902e+001
1.193721e+003,5.771202e+001
1.195649e+003,5.792168e+001
1.197578e+003,5.814861e+001
1.199506e+003,5.840152e+001
1.201435e+003,5.868602e+001
1.203363e+003,5.900352e+001
1.205292e+003,5.935133e+001
1.207220e+003,5.972285e+001
1.209149e+003,6.010879e+001
1.211077e+003,6.049718e+001
1.213005e+003,6.087551e+001
1.214934e+003,6.123329e+001
1.216862e+003,6.156304e+001
1.218791e+003,6.186249e+001
1.220719e+003,6.213457e+001
1.222648e+003,6.238646e+001
1.224576e+003,6.262678e+001
1.226505e+003,6.286374e+001
1.228433e+003,6.310328e+001
1.230362e+003,6.334801e+001
1.232290e+003,6.359832e+001
1.234219e+003,6.385335e+001
1.236147e+003,6.411240e+001
1.238076e+003,6.437543e+001
1.240004e+003,6.464281e+001
1.241932e+003,6.491463e+001
1.243861e+003,6.519014e+001
1.245789e+003,6.546797e+001
1.247718e+003,6.574684e+001
1.249646e+003,6.602639e+001
1.251575e+003,6.630816e+001
1.253503e+003,6.659526e+001
1.255432e+003,6.689136e+001
1.257360e+003,6.719850e+001
1.259289e+003,6.751563e+001
1.261217e+003,6.783765e+001
1.263146e+003,6.815699e+001
1.265074e+003,6.846552e+001
1.267003e+003,6.875802e+001
1.268931e+003,6.903380e+001
1.270859e+003,6.929723e+001
1.272788e+003,6.955592e+001
1.274716e+003,6.981840e+001
1.276645e+003,7.009184e+001
1.278573e+003,7.037971e+001
1.280502e+003,7.068097e+001
1.282430e+003,7.098992e+001
1.284359e+003,7.129790e+001
1.286287e+003,7.159361e+001
1.288216e+003,7.186512e+001
1.290144e+003,7.210183e+001
1.292073e+003,7.229405e+001
1.294001e+003,7.243462e+001
1.295930e+003,7.251935e+001
1.297858e+003,7.254709e+001
1.299786e+003,7.252052e+001
1.301715e+003,7.244653e+001
1.303643e+003,7.233752e+001
1.305572e+003,7.220975e+001
1.307500e+003,7.208434e+001
1.309429e+003,7.198503e+001
1.311357e+003,7.193269e+001
1.313286e+003,7.194332e+001
1.315214e+003,7.202215e+001
1.317143e+003,7.216174e+001
1.319071e+003,7.234209e+001
1.321000e+003,7.253618e+001
1.322928e+003,7.271768e+001
1.324857e+003,7.286597e+001
1.326785e+003,7.297342e+001
1.328714e+003,7.304546e+001
1.330642e+003,7.309891e+001
1.332570e+003,7.315481e+001
1.334499e+003,7.323338e+001
1.336427e+003,7.334648e+001
1.338356e+003,7.349351e+001
1.340284e+003,7.366163e+001
1.342213e+003,7.383042e+001
1.344141e+003,7.397979e+001
1.346070e+003,7.409422e+001
1.347998e+003,7.416738e+001
1.349927e+003,7.420137e+001
1.351855e+003,7.420432e+001
1.353784e+003,7.418651e+001
1.355712e+003,7.415836e+001
1.357641e+003,7.412906e+001
1.359569e+003,7.410551e+001
1.361497e+003,7.409366e+001
1.363426e+003,7.409916e+001
1.365354e+003,7.412716e+001
1.367283e+003,7.418258e+001
1.369211e+003,7.426859e+001
1.371140e+003,7.438519e+001
1.373068e+003,7.452806e+001
1.374997e+003,7.468856e+001
1.376925e+003,7.485467e+001
1.378854e+003,7.501183e+001
1.380782e+003,7.514680e+001
1.382711e+003,7.524848e+001
1.384639e+003,7.530982e+001
1.386568e+003,7.532890e+001
1.388496e+003,7.530893e+001
1.390424e+003,7.525789e+001
1.392353e+003,7.518642e+001
1.394281e+003,7.510725e+001
1.396210e+003,7.503192e+001
1.398138e+003,7.496864e+001
1.400067e+003,7.492185e+001
1.401995e+003,7.489167e+001
1.403924e+003,7.487494e+001
1.405852e+003,7.486584e+001
1.407781e+003,7.485724e+001
1.409709e+003,7.484042e+001
1.411638e+003,7.480601e+001
1.413566e+003,7.474648e+001
1.415495e+003,7.465857e+001
1.417423e+003,7.454711e+001
1.419351e+003,7.442558e+001
1.421280e+003,7.431516e+001
1.423208e+003,7.423801e+001
1.425137e+003,7.421078e+001
1.427065e+003,7.424204e+001
1.428994e+003,7.433002e+001
1.430922e+003,7.446403e+001
1.432851e+003,7.462528e+001
1.434779e+003,7.479219e+001
1.436708e+003,7.494298e+001
1.438636e+003,7.506086e+001
1.440565e+003,7.513796e+001
1.442493e+003,7.517384e+001
1.444422e+003,7.517373e+001
1.446350e+003,7.514537e+001
1.448278e+003,7.509901e+001
1.450207e+003,7.504685e+001
1.452135e+003,7.500308e+001
1.454064e+003,7.498350e+001
1.455992e+003,7.500007e+001
1.457921e+003,7.505691e+001
1.459849e+003,7.514902e+001
1.461778e+003,7.526576e+001
1.463706e+003,7.539519e+001
1.465635e+003,7.552757e+001
1.467563e+003,7.565698e+001
1.469492e+003,7.577953e+001
1.471420e+003,7.589260e+001
1.473349e+003,7.599438e+001
1.475277e+003,7.608385e+001
1.477205e+003,7.616147e+001
1.479134e+003,7.622926e+001
1.481062e+003,7.629031e+001
1.482991e+003,7.634765e+001
1.484919e+003,7.640306e+001
1.486848e+003,7.645605e+001
1.488776e+003,7.650373e+001
1.490705e+003,7.654127e+001
1.492633e+003,7.656390e+001
1.494562e+003,7.656895e+001
1.496490e+003,7.655647e+001
1.498419e+003,7.652902e+001
1.500347e+003,7.648998e+001
1.502276e+003,7.644291e+001
1.504204e+003,7.639024e+001
1.506132e+003,7.633344e+001
1.508061e+003,7.627327e+001
1.509989e+003,7.621045e+001
1.511918e+003,7.614581e+001
1.513846e+003,7.608041e+001
1.515775e+003,7.601517e+001
1.517703e+003,7.595076e+001
1.519632e+003,7.588744e+001
1.521560e+003,7.582532e+001
1.523489e+003,7.576447e+001
1.525417e+003,7.570498e+001
1.527346e+003,7.564674e+001
1.529274e+003,7.558897e+001
1.531203e+003,7.552986e+001
1.533131e+003,7.546639e+001
1.535059e+003,7.539511e+001
1.536988e+003,7.531364e+001
1.538916e+003,7.522324e+001
1.540845e+003,7.512987e+001
1.542773e+003,7.504146e+001
1.544702e+003,7.496385e+001
1.546630e+003,7.489755e+001
1.548559e+003,7.483833e+001
1.550487e+003,7.477857e+001
1.552416e+003,7.470991e+001
1.554344e+003,7.462608e+001
1.556273e+003,7.452574e+001
1.558201e+003,7.441443e+001
1.560130e+003,7.430186e+001
1.562058e+003,7.419650e+001
1.563986e+003,7.410088e+001
1.565915e+003,7.401171e+001
1.567843e+003,7.392231e+001
1.569772e+003,7.382650e+001
1.571700e+003,7.372068e+001
1.573629e+003,7.360554e+001
1.575557e+003,7.348499e+001
1.577486e+003,7.336399e+001
1.579414e+003,7.324542e+001
1.581343e+003,7.312883e+001
1.583271e+003,7.301075e+001
1.585200e+003,7.288673e+001
1.587128e+003,7.275299e+001
1.589057e+003,7.260763e+001
1.590985e+003,7.245079e+001
1.592913e+003,7.228403e+001
1.594842e+003,7.210920e+001
1.596770e+003,7.192747e+001
1.598699e+003,7.173953e+001
1.600627e+003,7.154588e+001
1.602556e+003,7.134718e+001
1.604484e+003,7.114436e+001
1.606413e+003,7.093783e+001
1.608341e+003,7.072687e+001
1.610270e+003,7.050992e+001
1.612198e+003,7.028553e+001
1.614127e+003,7.005440e+001
1.616055e+003,6.982115e+001
1.617984e+003,6.959386e+001
1.619912e+003,6.938219e+001
1.621840e+003,6.919364e+001
1.623769e+003,6.903116e+001
1.625697e+003,6.889365e+001
1.627626e+003,6.877818e+001
1.629554e+003,6.868259e+001
1.631483e+003,6.860680e+001
1.633411e+003,6.855225e+001
1.635340e+003,6.851993e+001
1.637268e+003,6.850851e+001
1.639197e+003,6.851431e+001
1.641125e+003,6.853245e+001
1.643054e+003,6.855906e+001
1.644982e+003,6.859325e+001
1.646911e+003,6.863703e+001
1.648839e+003,6.869351e+001
1.650767e+003,6.876364e+001
1.652696e+003,6.884426e+001
1.654624e+003,6.892906e+001
1.656553e+003,6.901241e+001
1.658481e+003,6.909171e+001
1.660410e+003,6.916805e+001
1.662338e+003,6.924469e+001
1.664267e+003,6.932510e+001
1.666195e+003,6.941116e+001
1.668124e+003,6.950184e+001
1.670052e+003,6.959364e+001
1.671981e+003,6.968239e+001
1.673909e+003,6.976530e+001
1.675838e+003,6.984248e+001
1.677766e+003,6.991633e+001
1.679694e+003,6.999010e+001
1.681623e+003,7.006570e+001
1.683551e+003,7.014257e+001
1.685480e+003,7.021819e+001
1.687408e+003,7.029013e+001
1.689337e+003,7.035786e+001
1.691265e+003,7.042364e+001
1.693194e+003,7.049186e+001
1.695122e+003,7.056771e+001
1.697051e+003,7.065453e+001
1.698979e+003,7.075172e+001
1.700908e+003,7.085476e+001
1.702836e+003,7.095794e+001
1.704765e+003,7.105804e+001
1.706693e+003,7.115588e+001
1.708621e+003,7.125549e+001
1.710550e+003,7.136185e+001
1.712478e+003,7.147849e+001
1.714407e+003,7.160546e+001
1.716335e+003,7.173891e+001
1.718264e+003,7.187277e+001
1.720192e+003,7.200224e+001
1.722121e+003,7.212598e+001
1.724049e+003,7.224632e+001
1.725978e+003,7.236720e+001
1.727906e+003,7.249215e+001
1.729835e+003,7.262251e+001
1.731763e+003,7.275706e+001
1.733692e+003,7.289258e+001
1.735620e+003,7.302585e+001
1.737548e+003,7.315553e+001
1.739477e+003,7.328270e+001
1.741405e+003,7.340929e+001
1.743334e+003,7.353633e+001
1.745262e+003,7.366304e+001
1.747191e+003,7.378709e+001
1.749119e+003,7.390588e+001
1.751048e+003,7.401803e+001
1.752976e+003,7.412390e+001
1.754905e+003,7.422505e+001
1.756833e+003,7.432306e+001
1.758762e+003,7.441884e+001
1.760690e+003,7.451257e+001
1.762619e+003,7.460480e+001
1.764547e+003,7.469707e+001
1.766475e+003,7.479239e+001
1.768404e+003,7.489424e+001
1.770332e+003,7.500487e+001
1.772261e+003,7.512379e+001
1.774189e+003,7.524731e+001
1.776118e+003,7.537016e+001
1.778046e+003,7.548779e+001
1.779975e+003,7.559862e+001
1.781903e+003,7.570418e+001
1.783832e+003,7.580820e+001
1.785760e+003,7.591451e+001
1.787689e+003,7.602510e+001
1.789617e+003,7.613896e+001
1.791546e+003,7.625256e+001
1.793474e+003,7.636164e+001
1.795402e+003,7.646404e+001
1.797331e+003,7.656119e+001
1.799259e+003,7.665775e+001
1.801188e+003,7.675893e+001
1.803116e+003,7.686849e+001
1.805045e+003,7.698687e+001
1.806973e+003,7.711156e+001
1.808902e+003,7.723811e+001
1.810830e+003,7.736233e+001
1.812759e+003,7.748221e+001
1.814687e+003,7.759771e+001
1.816616e+003,7.771036e+001
1.818544e+003,7.782141e+001
1.820473e+003,7.793078e+001
1.822401e+003,7.803670e+001
1.824329e+003,7.813707e+001
1.826258e+003,7.823124e+001
1.828186e+003,7.832085e+001
1.830115e+003,7.840975e+001
1.832043e+003,7.850197e+001
1.833972e+003,7.859950e+001
1.835900e+003,7.870181e+001
1.837829e+003,7.880615e+001
1.839757e+003,7.890947e+001
1.841686e+003,7.900975e+001
1.843614e+003,7.910714e+001
1.845543e+003,7.920318e+001
1.847471e+003,7.929927e+001
1.849400e+003,7.939491e+001
1.851328e+003,7.948763e+001
1.853256e+003,7.957436e+001
1.855185e+003,7.965363e+001
1.857113e+003,7.972706e+001
1.859042e+003,7.979957e+001
1.860970e+003,7.987743e+001
1.862899e+003,7.996577e+001
1.864827e+003,8.006538e+001
1.866756e+003,8.017162e+001
1.868684e+003,8.027560e+001
1.870613e+003,8.036864e+001
1.872541e+003,8.044598e+001
1.874470e+003,8.050860e+001
1.876398e+003,8.056171e+001
1.878327e+003,8.061237e+001
1.880255e+003,8.066656e+001
1.882183e+003,8.072763e+001
1.884112e+003,8.079694e+001
1.886040e+003,8.087504e+001
1.887969e+003,8.096293e+001
1.889897e+003,8.106183e+001
1.891826e+003,8.117215e+001
1.893754e+003,8.129165e+001
1.895683e+003,8.141428e+001
1.897611e+003,8.153184e+001
1.899540e+003,8.163649e+001
1.901468e+003,8.172367e+001
1.903396e+003,8.179451e+001
1.905325e+003,8.185518e+001
1.907253e+003,8.191416e+001
1.909182e+003,8.197789e+001
1.911110e+003,8.204858e+001
1.913039e+003,8.212372e+001
1.914967e+003,8.219934e+001
1.916896e+003,8.227348e+001
1.918824e+003,8.234911e+001
1.920753e+003,8.243366e+001
1.922681e+003,8.253587e+001
1.924610e+003,8.266042e+001
1.926538e+003,8.280513e+001
1.928467e+003,8.296085e+001
1.930395e+003,8.311618e+001
1.932323e+003,8.326161e+001
1.934252e+003,8.339395e+001
1.936180e+003,8.351675e+001
1.938109e+003,8.363731e+001
1.940037e+003,8.376104e+001
1.941966e+003,8.388714e+001
1.943894e+003,8.400864e+001
1.945823e+003,8.411700e+001
1.947751e+003,8.420897e+001
1.949680e+003,8.429147e+001
1.951608e+003,8.437990e+001
1.953537e+003,8.449315e+001
1.955465e+003,8.464473e+001
1.957394e+003,8.483565e+001
1.959322e+003,8.505264e+001
1.961250e+003,8.527241e+001
1.963179e+003,8.547269e+001
1.965107e+003,8.563964e+001
1.967036e+003,8.577285e+001
1.968964e+003,8.587959e+001
1.970893e+003,8.596717e+001
1.972821e+003,8.603398e+001
1.974750e+003,8.607040e+001
1.976678e+003,8.606528e+001
1.978607e+003,8.601633e+001
1.980535e+003,8.593304e+001
1.982464e+003,8.583414e+001
1.984392e+003,8.573792e+001
1.986321e+003,8.565705e+001
1.988249e+003,8.559574e+001
1.990177e+003,8.555237e+001
1.992106e+003,8.552498e+001
1.994034e+003,8.551614e+001
1.995963e+003,8.553335e+001
1.997891e+003,8.558597e+001
1.999820e+003,8.567855e+001
2.001748e+003,8.580556e+001
2.003677e+003,8.594827e+001
2.005605e+003,8.608185e+001
2.007534e+003,8.618211e+001
2.009462e+003,8.623766e+001
2.011391e+003,8.625427e+001
2.013319e+003,8.625243e+001
2.015248e+003,8.625560e+001
2.017176e+003,8.627804e+001
2.019104e+003,8.632043e+001
2.021033e+003,8.637081e+001
2.022961e+003,8.641361e+001
2.024890e+003,8.643684e+001
2.026818e+003,8.643780e+001
2.028747e+003,8.642042e+001
2.030675e+003,8.638786e+001
2.032604e+003,8.633687e+001
2.034532e+003,8.625671e+001
2.036461e+003,8.613424e+001
2.038389e+003,8.596375e+001
2.040318e+003,8.575124e+001
2.042246e+003,8.551457e+001
2.044175e+003,8.527545e+001
2.046103e+003,8.505296e+001
2.048031e+003,8.485672e+001
2.049960e+003,8.468710e+001
2.051888e+003,8.453931e+001
2.053817e+003,8.440814e+001
2.055745e+003,8.429133e+001
2.057674e+003,8.419002e+001
2.059602e+003,8.410638e+001
2.061531e+003,8.404080e+001
2.063459e+003,8.398948e+001
2.065388e+003,8.394518e+001
2.067316e+003,8.389896e+001
2.069245e+003,8.384428e+001
2.071173e+003,8.377966e+001
2.073102e+003,8.370839e+001
2.075030e+003,8.363644e+001
2.076958e+003,8.356903e+001
2.078887e+003,8.350894e+001
2.080815e+003,8.345581e+001
2.082744e+003,8.340735e+001
2.084672e+003,8.336177e+001
2.086601e+003,8.331931e+001
2.088529e+003,8.328235e+001
2.090458e+003,8.325429e+001
2.092386e+003,8.323737e+001
2.094315e+003,8.323091e+001
2.096243e+003,8.323086e+001
2.098172e+003,8.323085e+001
2.100100e+003,8.322367e+001
2.102029e+003,8.320364e+001
2.103957e+003,8.316791e+001
2.105885e+003,8.311604e+001
2.107814e+003,8.304999e+001
2.109742e+003,8.297368e+001
2.111671e+003,8.289319e+001
2.113599e+003,8.281618e+001
2.115528e+003,8.275249e+001
2.117456e+003,8.271240e+001
2.119385e+003,8.270445e+001
2.121313e+003,8.273428e+001
2.123242e+003,8.280279e+001
2.125170e+003,8.290659e+001
2.127099e+003,8.303832e+001
2.129027e+003,8.318997e+001
2.130956e+003,8.335497e+001
2.132884e+003,8.352938e+001
2.134813e+003,8.371229e+001
2.136741e+003,8.390335e+001
2.138669e+003,8.410025e+001
2.140598e+003,8.429772e+001
2.142526e+003,8.448795e+001
2.144455e+003,8.466393e+001
2.146383e+003,8.482204e+001
2.148312e+003,8.496309e+001
2.150240e+003,8.508858e+001
2.152169e+003,8.519599e+001
2.154097e+003,8.527447e+001
2.156026e+003,8.530663e+001
2.157954e+003,8.527671e+001
2.159883e+003,8.518217e+001
2.161811e+003,8.503963e+001
2.163740e+003,8.488084e+001
2.165668e+003,8.474035e+001
2.167596e+003,8.464139e+001
2.169525e+003,8.459140e+001
2.171453e+003,8.458118e+001
2.173382e+003,8.459044e+001
2.175310e+003,8.459335e+001
2.177239e+003,8.456821e+001
2.179167e+003,8.450230e+001
2.181096e+003,8.439216e+001
2.183024e+003,8.424328e+001
2.184953e+003,8.406542e+001
2.186881e+003,8.387132e+001
2.188810e+003,8.367381e+001
2.190738e+003,8.348707e+001
2.192667e+003,8.332533e+001
2.194595e+003,8.319990e+001
2.196523e+003,8.311755e+001
2.198452e+003,8.307682e+001
2.200380e+003,8.306818e+001
2.202309e+003,8.307484e+001
2.204237e+003,8.307851e+001
2.206166e+003,8.306465e+001
2.208094e+003,8.302583e+001
2.210023e+003,8.296317e+001
2.211951e+003,8.288375e+001
2.213880e+003,8.279646e+001
2.215808e+003,8.270758e+001
2.217737e+003,8.261964e+001
2.219665e+003,8.253155e+001
2.221594e+003,8.244115e+001
2.223522e+003,8.234776e+001
2.225450e+003,8.225340e+001
2.227379e+003,8.216204e+001
2.229307e+003,8.207841e+001
2.231236e+003,8.200565e+001
2.233164e+003,8.194433e+001
2.235093e+003,8.189261e+001
2.237021e+003,8.184738e+001
2.238950e+003,8.180543e+001
2.240878e+003,8.176389e+001
2.242807e+003,8.172041e+001
2.244735e+003,8.167260e+001
2.246664e+003,8.161790e+001
2.248592e+003,8.155432e+001
2.250521e+003,8.148110e+001
2.252449e+003,8.139995e+001
2.254377e+003,8.131481e+001
2.256306e+003,8.123119e+001
2.258234e+003,8.115399e+001
2.260163e+003,8.108563e+001
2.262091e+003,8.102530e+001
2.264020e+003,8.096916e+001
2.265948e+003,8.091204e+001
2.267877e+003,8.084951e+001
2.269805e+003,8.078003e+001
2.271734e+003,8.070526e+001
2.273662e+003,8.062943e+001
2.275591e+003,8.055743e+001
2.277519e+003,8.049326e+001
2.279448e+003,8.043852e+001
2.281376e+003,8.039239e+001
2.283304e+003,8.035223e+001
2.285233e+003,8.031500e+001
2.287161e+003,8.027795e+001
2.289090e+003,8.023924e+001
2.291018e+003,8.019817e+001
2.292947e+003,8.015495e+001
2.294875e+003,8.011043e+001
2.296804e+003,8.006585e+001
2.298732e+003,8.002280e+001
2.300661e+003,7.998280e+001
2.302589e+003,7.994698e+001
2.304518e+003,7.991592e+001
2.306446e+003,7.988921e+001
2.308375e+003,7.986549e+001
2.310303e+003,7.984254e+001
2.312231e+003,7.981797e+001
2.314160e+003,7.978976e+001
2.316088e+003,7.975703e+001
2.318017e+003,7.972017e+001
2.319945e+003,7.968098e+001
2.321874e+003,7.964238e+001
2.323802e+003,7.960741e+001
2.325731e+003,7.957938e+001
2.327659e+003,7.956124e+001
2.329588e+003,7.955517e+001
2.331516e+003,7.956264e+001
2.333445e+003,7.958353e+001
2.335373e+003,7.961580e+001
2.337302e+003,7.965555e+001
2.339230e+003,7.969809e+001
2.341158e+003,7.973920e+001
2.343087e+003,7.977628e+001
2.345015e+003,7.980908e+001
2.346944e+003,7.983898e+001
2.348872e+003,7.986839e+001
2.350801e+003,7.989978e+001
2.352729e+003,7.993536e+001
2.354658e+003,7.997637e+001
2.356586e+003,8.002303e+001
2.358515e+003,8.007437e+001
2.360443e+003,8.012891e+001
2.362372e+003,8.018490e+001
2.364300e+003,8.024117e+001
2.366229e+003,8.029675e+001
2.368157e+003,8.035098e+001
2.370085e+003,8.040350e+001
2.372014e+003,8.045441e+001
2.373942e+003,8.050460e+001
2.375871e+003,8.055561e+001
2.377799e+003,8.060916e+001
2.379728e+003,8.066669e+001
2.381656e+003,8.072864e+001
2.383585e+003,8.079438e+001
2.385513e+003,8.086204e+001
2.387442e+003,8.092931e+001
2.389370e+003,8.099428e+001
2.391299e+003,8.105586e+001
2.393227e+003,8.111449e+001
2.395156e+003,8.117168e+001
2.397084e+003,8.122945e+001
2.399012e+003,8.128928e+001
2.400941e+003,8.135153e+001
2.402869e+003,8.141567e+001
2.404798e+003,8.148067e+001
2.406726e+003,8.154572e+001
2.408655e+003,8.161063e+001
2.410583e+003,8.167575e+001
2.412512e+003,8.174127e+001
2.414440e+003,8.180679e+001
2.416369e+003,8.187085e+001
2.418297e+003,8.193135e+001
2.420226e+003,8.198639e+001
2.422154e+003,8.203513e+001
2.424083e+003,8.207808e+001
2.426011e+003,8.211700e+001
2.427939e+003,8.215424e+001
2.429868e+003,8.219173e+001
2.431796e+003,8.223031e+001
2.433725e+003,8.226979e+001
2.435653e+003,8.230929e+001
2.437582e+003,8.234777e+001
2.439510e+003,8.238449e+001
2.441439e+003,8.241901e+001
2.443367e+003,8.245110e+001
2.445296e+003,8.248038e+001
2.447224e+003,8.250661e+001
2.449153e+003,8.252976e+001
2.451081e+003,8.255058e+001
2.453010e+003,8.257059e+001
2.454938e+003,8.259186e+001
2.456866e+003,8.261630e+001
2.458795e+003,8.264487e+001
2.460723e+003,8.267706e+001
2.462652e+003,8.271115e+001
2.464580e+003,8.274489e+001
2.466509e+003,8.277634e+001
2.468437e+003,8.280489e+001
2.470366e+003,8.283128e+001
2.472294e+003,8.285710e+001
2.474223e+003,8.288381e+001
2.476151e+003,8.291174e+001
2.478080e+003,8.293968e+001
2.480008e+003,8.296539e+001
2.481937e+003,8.298613e+001
2.483865e+003,8.299996e+001
2.485793e+003,8.300649e+001
2.487722e+003,8.300694e+001
2.489650e+003,8.300365e+001
2.491579e+003,8.299905e+001
2.493507e+003,8.299532e+001
2.495436e+003,8.299335e+001
2.497364e+003,8.299304e+001
2.499293e+003,8.299341e+001
2.501221e+003,8.299312e+001
2.503150e+003,8.299071e+001
2.505078e+003,8.298512e+001
2.507007e+003,8.297578e+001
2.508935e+003,8.296278e+001
2.510864e+003,8.294670e+001
2.512792e+003,8.292854e+001
2.514720e+003,8.290929e+001
2.516649e+003,8.288949e+001
2.518577e+003,8.286895e+001
2.520506e+003,8.284685e+001
2.522434e+003,8.282192e+001
2.524363e+003,8.279340e+001
2.526291e+003,8.276135e+001
2.528220e+003,8.272725e+001
2.530148e+003,8.269363e+001
2.532077e+003,8.266349e+001
2.534005e+003,8.263897e+001
2.535934e+003,8.262085e+001
2.537862e+003,8.260786e+001
2.539791e+003,8.259715e+001
2.541719e+003,8.258488e+001
2.543647e+003,8.256760e+001
2.545576e+003,8.254301e+001
2.547504e+003,8.251051e+001
2.549433e+003,8.247116e+001
2.551361e+003,8.242715e+001
2.553290e+003,8.238113e+001
2.555218e+003,8.233524e+001
2.557147e+003,8.229095e+001
2.559075e+003,8.224860e+001
2.561004e+003,8.220766e+001
2.562932e+003,8.216685e+001
2.564861e+003,8.212486e+001
2.566789e+003,8.208050e+001
2.568718e+003,8.203324e+001
2.570646e+003,8.198309e+001
2.572574e+003,8.193061e+001
2.574503e+003,8.187639e+001
2.576431e+003,8.182073e+001
2.578360e+003,8.176347e+001
2.580288e+003,8.170410e+001
2.582217e+003,8.164210e+001
2.584145e+003,8.157740e+001
2.586074e+003,8.151080e+001
2.588002e+003,8.144376e+001
2.589931e+003,8.137808e+001
2.591859e+003,8.131531e+001
2.593788e+003,8.125609e+001
2.595716e+003,8.119996e+001
2.597645e+003,8.114568e+001
2.599573e+003,8.109172e+001
2.601501e+003,8.103675e+001
2.603430e+003,8.098023e+001
2.605358e+003,8.092225e+001
2.607287e+003,8.086321e+001
2.609215e+003,8.080343e+001
2.611144e+003,8.074281e+001
2.613072e+003,8.068078e+001
2.615001e+003,8.061680e+001
2.616929e+003,8.055045e+001
2.618858e+003,8.048184e+001
2.620786e+003,8.041151e+001
2.622715e+003,8.034010e+001
2.624643e+003,8.026806e+001
2.626572e+003,8.019557e+001
2.628500e+003,8.012250e+001
2.630428e+003,8.004868e+001
2.632357e+003,7.997419e+001
2.634285e+003,7.989939e+001
2.636214e+003,7.982465e+001
2.638142e+003,7.975010e+001
2.640071e+003,7.967534e+001
2.641999e+003,7.959942e+001
2.643928e+003,7.952127e+001
2.645856e+003,7.944025e+001
2.647785e+003,7.935677e+001
2.649713e+003,7.927244e+001
2.651642e+003,7.918970e+001
2.653570e+003,7.911136e+001
2.655499e+003,7.903975e+001
2.657427e+003,7.897598e+001
2.659355e+003,7.891991e+001
2.661284e+003,7.887029e+001
2.663212e+003,7.882553e+001
2.665141e+003,7.878402e+001
2.667069e+003,7.874480e+001
2.668998e+003,7.870757e+001
2.670926e+003,7.867241e+001
2.672855e+003,7.863931e+001
2.674783e+003,7.860804e+001
2.676712e+003,7.857780e+001
2.678640e+003,7.854768e+001
2.680569e+003,7.851692e+001
2.682497e+003,7.848524e+001
2.684426e+003,7.845300e+001
2.686354e+003,7.842094e+001
2.688282e+003,7.838996e+001
2.690211e+003,7.836060e+001
2.692139e+003,7.833295e+001
2.694068e+003,7.830663e+001
2.695996e+003,7.828106e+001
2.697925e+003,7.825549e+001
2.699853e+003,7.822949e+001
2.701782e+003,7.820266e+001
2.703710e+003,7.817480e+001
2.705639e+003,7.814577e+001
2.707567e+003,7.811558e+001
2.709496e+003,7.808447e+001
2.711424e+003,7.805302e+001
2.713353e+003,7.802223e+001
2.715281e+003,7.799323e+001
2.717209e+003,7.796692e+001
2.719138e+003,7.794379e+001
2.721066e+003,7.792360e+001
2.722995e+003,7.790557e+001
2.724923e+003,7.788862e+001
2.726852e+003,7.787178e+001
2.728780e+003,7.785476e+001
2.730709e+003,7.783781e+001
2.732637e+003,7.782166e+001
2.734566e+003,7.780727e+001
2.736494e+003,7.779548e+001
2.738423e+003,7.778664e+001
2.740351e+003,7.778071e+001
2.742280e+003,7.777733e+001
2.744208e+003,7.777582e+001
2.746136e+003,7.777546e+001
2.748065e+003,7.777531e+001
2.749993e+003,7.777444e+001
2.751922e+003,7.777183e+001
2.753850e+003,7.776679e+001
2.755779e+003,7.775919e+001
2.757707e+003,7.774959e+001
2.759636e+003,7.773923e+001
2.761564e+003,7.772965e+001
2.763493e+003,7.772217e+001
2.765421e+003,7.771728e+001
2.767350e+003,7.771445e+001
2.769278e+003,7.771220e+001
2.771207e+003,7.770876e+001
2.773135e+003,7.770264e+001
2.775063e+003,7.769321e+001
2.776992e+003,7.768095e+001
2.778920e+003,7.766723e+001
2.780849e+003,7.765364e+001
2.782777e+003,7.764154e+001
2.784706e+003,7.763169e+001
2.786634e+003,7.762413e+001
2.788563e+003,7.761848e+001
2.790491e+003,7.761414e+001
2.792420e+003,7.761058e+001
2.794348e+003,7.760731e+001
2.796277e+003,7.760365e+001
2.798205e+003,7.759880e+001
2.800134e+003,7.759167e+001
2.802062e+003,7.758122e+001
2.803990e+003,7.756699e+001
2.805919e+003,7.754917e+001
2.807847e+003,7.752888e+001
2.809776e+003,7.750770e+001
2.811704e+003,7.748734e+001
2.813633e+003,7.746893e+001
2.815561e+003,7.745274e+001
2.817490e+003,7.743811e+001
2.819418e+003,7.742390e+001
2.821347e+003,7.740855e+001
2.823275e+003,7.739056e+001
2.825204e+003,7.736867e+001
2.827132e+003,7.734134e+001
2.829061e+003,7.730686e+001
2.830989e+003,7.726329e+001
2.832917e+003,7.720860e+001
2.834846e+003,7.714157e+001
2.836774e+003,7.706247e+001
2.838703e+003,7.697379e+001
2.840631e+003,7.688000e+001
2.842560e+003,7.678781e+001
2.844488e+003,7.670483e+001
2.846417e+003,7.663769e+001
2.848345e+003,7.659149e+001
2.850274e+003,7.656816e+001
2.852202e+003,7.656638e+001
2.854131e+003,7.658192e+001
2.856059e+003,7.660902e+001
2.857988e+003,7.664158e+001
2.859916e+003,7.667408e+001
2.861844e+003,7.670285e+001
2.863773e+003,7.672581e+001
2.865701e+003,7.674229e+001
2.867630e+003,7.675248e+001
2.869558e+003,7.675674e+001
2.871487e+003,7.675527e+001
2.873415e+003,7.674796e+001
2.875344e+003,7.673453e+001
2.877272e+003,7.671491e+001
2.879201e+003,7.668967e+001
2.881129e+003,7.665996e+001
2.883058e+003,7.662759e+001
2.884986e+003,7.659478e+001
2.886915e+003,7.656401e+001
2.888843e+003,7.653752e+001
2.890771e+003,7.651759e+001
2.892700e+003,7.650625e+001
2.894628e+003,7.650507e+001
2.896557e+003,7.651512e+001
2.898485e+003,7.653631e+001
2.900414e+003,7.656748e+001
2.902342e+003,7.660619e+001
2.904271e+003,7.664938e+001
2.906199e+003,7.669446e+001
2.908128e+003,7.674000e+001
2.910056e+003,7.678670e+001
2.911985e+003,7.683721e+001
2.913913e+003,7.689556e+001
2.915842e+003,7.696520e+001
2.917770e+003,7.704794e+001
2.919698e+003,7.714252e+001
2.921627e+003,7.724493e+001
2.923555e+003,7.734901e+001
2.925484e+003,7.744842e+001
2.927412e+003,7.753849e+001
2.929341e+003,7.761684e+001
2.931269e+003,7.768382e+001
2.933198e+003,7.774169e+001
2.935126e+003,7.779410e+001
2.937055e+003,7.784466e+001
2.938983e+003,7.789684e+001
2.940912e+003,7.795370e+001
2.942840e+003,7.801747e+001
2.944769e+003,7.808950e+001
2.946697e+003,7.816982e+001
2.948625e+003,7.825710e+001
2.950554e+003,7.834838e+001
2.952482e+003,7.844012e+001
2.954411e+003,7.852914e+001
2.956339e+003,7.861365e+001
2.958268e+003,7.869414e+001
2.960196e+003,7.877316e+001
2.962125e+003,7.885455e+001
2.964053e+003,7.894166e+001
2.965982e+003,7.903629e+001
2.967910e+003,7.913804e+001
2.969839e+003,7.924461e+001
2.971767e+003,7.935281e+001
2.973696e+003,7.945976e+001
2.975624e+003,7.956370e+001
2.977552e+003,7.966395e+001
2.979481e+003,7.976045e+001
2.981409e+003,7.985299e+001
2.983338e+003,7.994060e+001
2.985266e+003,8.002173e+001
2.987195e+003,8.009459e+001
2.989123e+003,8.015793e+001
2.991052e+003,8.021152e+001
2.992980e+003,8.025657e+001
2.994909e+003,8.029512e+001
2.996837e+003,8.032946e+001
2.998766e+003,8.036162e+001
3.000694e+003,8.039292e+001
3.002623e+003,8.042359e+001
3.004551e+003,8.045312e+001
3.006479e+003,8.048035e+001
3.008408e+003,8.050388e+001
3.010336e+003,8.052225e+001
3.012265e+003,8.053445e+001
3.014193e+003,8.054020e+001
3.016122e+003,8.054024e+001
3.018050e+003,8.053632e+001
3.019979e+003,8.053092e+001
3.021907e+003,8.052658e+001
3.023836e+003,8.052496e+001
3.025764e+003,8.052627e+001
3.027693e+003,8.052912e+001
3.029621e+003,8.053116e+001
3.031550e+003,8.052969e+001
3.033478e+003,8.052310e+001
3.035406e+003,8.051115e+001
3.037335e+003,8.049530e+001
3.039263e+003,8.047768e+001
3.041192e+003,8.046040e+001
3.043120e+003,8.044465e+001
3.045049e+003,8.043044e+001
3.046977e+003,8.041694e+001
3.048906e+003,8.040321e+001
3.050834e+003,8.038876e+001
3.052763e+003,8.037397e+001
3.054691e+003,8.035970e+001
3.056620e+003,8.034671e+001
3.058548e+003,8.033511e+001
3.060477e+003,8.032408e+001
3.062405e+003,8.031206e+001
3.064333e+003,8.029737e+001
3.066262e+003,8.027901e+001
3.068190e+003,8.025688e+001
3.070119e+003,8.023187e+001
3.072047e+003,8.020531e+001
3.073976e+003,8.017841e+001
3.075904e+003,8.015203e+001
3.077833e+003,8.012650e+001
3.079761e+003,8.010188e+001
3.081690e+003,8.007821e+001
3.083618e+003,8.005573e+001
3.085547e+003,8.003461e+001
3.087475e+003,8.001470e+001
3.089404e+003,7.999525e+001
3.091332e+003,7.997489e+001
3.093260e+003,7.995193e+001
3.095189e+003,7.992502e+001
3.097117e+003,7.989345e+001
3.099046e+003,7.985755e+001
3.100974e+003,7.981855e+001
3.102903e+003,7.977800e+001
3.104831e+003,7.973731e+001
3.106760e+003,7.969751e+001
3.108688e+003,7.965903e+001
3.110617e+003,7.962198e+001
3.112545e+003,7.958629e+001
3.114474e+003,7.955183e+001
3.116402e+003,7.951842e+001
3.118331e+003,7.948563e+001
3.120259e+003,7.945271e+001
3.122188e+003,7.941862e+001
3.124116e+003,7.938228e+001
3.126044e+003,7.934287e+001
3.127973e+003,7.929989e+001
3.129901e+003,7.925323e+001
3.131830e+003,7.920308e+001
3.133758e+003,7.914970e+001
3.135687e+003,7.909345e+001
3.137615e+003,7.903501e+001
3.139544e+003,7.897554e+001
3.141472e+003,7.891660e+001
3.143401e+003,7.885999e+001
3.145329e+003,7.880711e+001
3.147258e+003,7.875828e+001
3.149186e+003,7.871249e+001
3.151115e+003,7.866743e+001
3.153043e+003,7.862051e+001
3.154971e+003,7.856967e+001
3.156900e+003,7.851437e+001
3.158828e+003,7.845570e+001
3.160757e+003,7.839597e+001
3.162685e+003,7.833768e+001
3.164614e+003,7.828221e+001
3.166542e+003,7.822944e+001
3.168471e+003,7.817785e+001
3.170399e+003,7.812533e+001
3.172328e+003,7.807015e+001
3.174256e+003,7.801186e+001
3.176185e+003,7.795113e+001
3.178113e+003,7.788931e+001
3.180042e+003,7.782733e+001
3.181970e+003,7.776538e+001
3.183898e+003,7.770263e+001
3.185827e+003,7.763813e+001
3.187755e+003,7.757138e+001
3.189684e+003,7.750298e+001
3.191612e+003,7.743441e+001
3.193541e+003,7.736754e+001
3.195469e+003,7.730336e+001
3.197398e+003,7.724143e+001
3.199326e+003,7.717973e+001
3.201255e+003,7.711570e+001
3.203183e+003,7.704695e+001
3.205112e+003,7.697246e+001
3.207040e+003,7.689264e+001
3.208969e+003,7.680910e+001
3.210897e+003,7.672369e+001
3.212825e+003,7.663738e+001
3.214754e+003,7.655034e+001
3.216682e+003,7.646197e+001
3.218611e+003,7.637178e+001
3.220539e+003,7.628005e+001
3.222468e+003,7.618806e+001
3.224396e+003,7.609764e+001
3.226325e+003,7.601051e+001
3.228253e+003,7.592720e+001
3.230182e+003,7.584703e+001
3.232110e+003,7.576808e+001
3.234039e+003,7.568813e+001
3.235967e+003,7.560498e+001
3.237896e+003,7.551718e+001
3.239824e+003,7.542376e+001
3.241752e+003,7.532377e+001
3.243681e+003,7.521596e+001
3.245609e+003,7.509879e+001
3.247538e+003,7.497079e+001
3.249466e+003,7.483131e+001
3.251395e+003,7.468118e+001
3.253323e+003,7.452307e+001
3.255252e+003,7.436079e+001
3.257180e+003,7.419919e+001
3.259109e+003,7.404305e+001
3.261037e+003,7.389645e+001
3.262966e+003,7.376290e+001
3.264894e+003,7.364503e+001
3.266823e+003,7.354469e+001
3.268751e+003,7.346264e+001
3.270679e+003,7.339854e+001
3.272608e+003,7.335039e+001
3.274536e+003,7.331487e+001
3.276465e+003,7.328825e+001
3.278393e+003,7.326702e+001
3.280322e+003,7.324886e+001
3.282250e+003,7.323297e+001
3.284179e+003,7.321976e+001
3.286107e+003,7.320999e+001
3.288036e+003,7.320411e+001
3.289964e+003,7.320175e+001
3.291893e+003,7.320219e+001
3.293821e+003,7.320483e+001
3.295750e+003,7.320985e+001
3.297678e+003,7.321828e+001
3.299606e+003,7.323141e+001
3.301535e+003,7.324961e+001
3.303463e+003,7.327143e+001
3.305392e+003,7.329296e+001
3.307320e+003,7.330818e+001
3.309249e+003,7.331084e+001
3.311177e+003,7.329518e+001
3.313106e+003,7.325773e+001
3.315034e+003,7.319793e+001
3.316963e+003,7.311786e+001
3.318891e+003,7.302171e+001
3.320820e+003,7.291485e+001
3.322748e+003,7.280381e+001
3.324677e+003,7.269529e+001
3.326605e+003,7.259646e+001
3.328533e+003,7.251471e+001
3.330462e+003,7.245659e+001
3.332390e+003,7.242754e+001
3.334319e+003,7.243134e+001
3.336247e+003,7.246955e+001
3.338176e+003,7.254221e+001
3.340104e+003,7.264812e+001
3.342033e+003,7.278528e+001
3.343961e+003,7.295084e+001
3.345890e+003,7.314088e+001
3.347818e+003,7.335011e+001
3.349747e+003,7.357147e+001
3.351675e+003,7.379764e+001
3.353604e+003,7.402168e+001
3.355532e+003,7.423815e+001
3.357460e+003,7.444437e+001
3.359389e+003,7.463983e+001
3.361317e+003,7.482572e+001
3.363246e+003,7.500356e+001
3.365174e+003,7.517487e+001
3.367103e+003,7.534061e+001
3.369031e+003,7.550172e+001
3.370959e+003,7.565958e+001
3.372888e+003,7.581607e+001
3.374816e+003,7.597308e+001
3.376745e+003,7.613182e+001
3.378673e+003,7.629203e+001
3.380602e+003,7.645164e+001
3.382530e+003,7.660732e+001
3.384459e+003,7.675581e+001
3.386387e+003,7.689479e+001
3.388316e+003,7.702373e+001
3.390244e+003,7.714361e+001
3.392173e+003,7.725636e+001
3.394101e+003,7.736392e+001
3.396030e+003,7.746784e+001
3.397958e+003,7.756966e+001
3.399886e+003,7.767152e+001
3.401815e+003,7.777667e+001
3.403743e+003,7.788981e+001
3.405672e+003,7.801569e+001
3.407600e+003,7.815817e+001
3.409529e+003,7.831887e+001
3.411457e+003,7.849660e+001
3.413386e+003,7.868787e+001
3.415314e+003,7.888799e+001
3.417243e+003,7.909288e+001
3.419171e+003,7.929939e+001
3.421100e+003,7.950542e+001
3.423028e+003,7.970930e+001
3.424957e+003,7.990883e+001
3.426885e+003,8.010108e+001
3.428813e+003,8.028310e+001
3.430742e+003,8.045277e+001
3.432670e+003,8.060993e+001
3.434599e+003,8.075668e+001
3.436527e+003,8.089674e+001
3.438456e+003,8.103390e+001
3.440384e+003,8.117105e+001
3.442313e+003,8.130927e+001
3.444241e+003,8.144805e+001
3.446170e+003,8.158648e+001
3.448098e+003,8.172432e+001
3.450027e+003,8.186252e+001
3.451955e+003,8.200318e+001
3.453884e+003,8.214824e+001
3.455812e+003,8.229862e+001
3.457740e+003,8.245352e+001
3.459669e+003,8.261098e+001
3.461597e+003,8.276837e+001
3.463526e+003,8.292371e+001
3.465454e+003,8.307597e+001
3.467383e+003,8.322500e+001
3.469311e+003,8.337078e+001
3.471240e+003,8.351281e+001
3.473168e+003,8.365001e+001
3.475097e+003,8.378141e+001
3.477025e+003,8.390695e+001
3.478954e+003,8.402831e+001
3.480882e+003,8.414846e+001
3.482811e+003,8.427095e+001
3.484739e+003,8.439834e+001
3.486667e+003,8.453113e+001
3.488596e+003,8.466748e+001
3.490524e+003,8.480414e+001
3.492453e+003,8.493821e+001
3.494381e+003,8.506796e+001
3.496310e+003,8.519355e+001
3.498238e+003,8.531641e+001
3.500167e+003,8.543806e+001
3.502095e+003,8.555901e+001
3.504024e+003,8.567841e+001
3.505952e+003,8.579472e+001
3.507881e+003,8.590714e+001
3.509809e+003,8.601640e+001
3.511738e+003,8.612524e+001
3.513666e+003,8.623719e+001
3.515594e+003,8.635542e+001
3.517523e+003,8.648087e+001
3.519451e+003,8.661214e+001
3.521380e+003,8.674552e+001
3.523308e+003,8.687679e+001
3.525237e+003,8.700310e+001
3.527165e+003,8.712395e+001
3.529094e+003,8.724114e+001
3.531022e+003,8.735758e+001
3.532951e+003,8.747599e+001
3.534879e+003,8.759753e+001
3.536808e+003,8.772181e+001
3.538736e+003,8.784718e+001
3.540665e+003,8.797194e+001
3.542593e+003,8.809474e+001
3.544521e+003,8.821497e+001
3.546450e+003,8.833267e+001
3.548378e+003,8.844812e+001
3.550307e+003,8.856178e+001
3.552235e+003,8.867432e+001
3.554164e+003,8.878711e+001
3.556092e+003,8.890219e+001
3.558021e+003,8.902209e+001
3.559949e+003,8.914887e+001
3.561878e+003,8.928318e+001
3.563806e+003,8.942336e+001
3.565735e+003,8.956599e+001
3.567663e+003,8.970739e+001
3.569592e+003,8.984539e+001
3.571520e+003,8.998053e+001
3.573448e+003,9.011538e+001
3.575377e+003,9.025336e+001
3.577305e+003,9.039704e+001
3.579234e+003,9.054703e+001
3.581162e+003,9.070147e+001
3.583091e+003,9.085696e+001
3.585019e+003,9.101006e+001
3.586948e+003,9.115900e+001
3.588876e+003,9.130434e+001
3.590805e+003,9.144876e+001
3.592733e+003,9.159550e+001
3.594662e+003,9.174664e+001
3.596590e+003,9.190278e+001
3.598519e+003,9.206339e+001
3.600447e+003,9.222788e+001
3.602375e+003,9.239621e+001
3.604304e+003,9.256902e+001
3.606232e+003,9.274702e+001
3.608161e+003,9.292973e+001
3.610089e+003,9.311475e+001
3.612018e+003,9.329854e+001
3.613946e+003,9.347771e+001
3.615875e+003,9.365145e+001
3.617803e+003,9.382246e+001
3.619732e+003,9.399648e+001
3.621660e+003,9.417993e+001
3.623589e+003,9.437756e+001
3.625517e+003,9.458944e+001
3.627446e+003,9.481052e+001
3.629374e+003,9.503215e+001
3.631302e+003,9.524610e+001
3.633231e+003,9.544781e+001
3.635159e+003,9.563712e+001
3.637088e+003,9.581814e+001
3.639016e+003,9.599709e+001
3.640945e+003,9.618071e+001
3.642873e+003,9.637384e+001
3.644802e+003,9.657770e+001
3.646730e+003,9.678809e+001
3.648659e+003,9.699632e+001
3.650587e+003,9.719224e+001
3.652516e+003,9.736874e+001
3.654444e+003,9.752387e+001
3.656373e+003,9.766019e+001
3.658301e+003,9.778280e+001
3.660229e+003,9.789776e+001
3.662158e+003,9.801150e+001
3.664086e+003,9.812984e+001
3.666015e+003,9.825691e+001
3.667943e+003,9.839310e+001
3.669872e+003,9.853371e+001
3.671800e+003,9.866956e+001
3.673729e+003,9.879078e+001
3.675657e+003,9.889160e+001
3.677586e+003,9.897203e+001
3.679514e+003,9.903699e+001
3.681443e+003,9.909295e+001
3.683371e+003,9.914592e+001
3.685300e+003,9.919898e+001
3.687228e+003,9.925195e+001
3.689156e+003,9.930179e+001
3.691085e+003,9.934489e+001
3.693013e+003,9.937907e+001
3.694942e+003,9.940494e+001
3.696870e+003,9.942560e+001
3.698799e+003,9.944563e+001
3.700727e+003,9.946935e+001
3.702656e+003,9.949935e+001
3.704584e+003,9.953558e+001
3.706513e+003,9.957532e+001
3.708441e+003,9.961437e+001
3.710370e+003,9.964844e+001
3.712298e+003,9.967537e+001
3.714227e+003,9.969566e+001
3.716155e+003,9.971183e+001
3.718083e+003,9.972684e+001
3.720012e+003,9.974301e+001
3.721940e+003,9.976115e+001
3.723869e+003,9.978054e+001
3.725797e+003,9.979906e+001
3.727726e+003,9.981424e+001
3.729654e+003,9.982422e+001
3.731583e+003,9.982854e+001
3.733511e+003,9.982849e+001
3.735440e+003,9.982661e+001
3.737368e+003,9.982589e+001
3.739297e+003,9.982860e+001
3.741225e+003,9.983541e+001
3.743154e+003,9.984519e+001
3.745082e+003,9.985543e+001
3.747010e+003,9.986333e+001
3.748939e+003,9.986701e+001
3.750867e+003,9.986650e+001
3.752796e+003,9.986366e+001
3.754724e+003,9.986112e+001
3.756653e+003,9.986119e+001
3.758581e+003,9.986555e+001
3.760510e+003,9.987446e+001
3.762438e+003,9.988715e+001
3.764367e+003,9.990205e+001
3.766295e+003,9.991752e+001
3.768224e+003,9.993223e+001
3.770152e+003,9.994575e+001
3.772081e+003,9.995856e+001
3.774009e+003,9.997159e+001
3.775938e+003,9.998570e+001
3.777866e+003,1.000011e+002
3.779794e+003,1.000174e+002
3.781723e+003,1.000332e+002
3.783651e+003,1.000475e+002
3.785580e+003,1.000593e+002
3.787508e+003,1.000686e+002
3.789437e+003,1.000759e+002
3.791365e+003,1.000825e+002
3.793294e+003,1.000892e+002
3.795222e+003,1.000967e+002
3.797151e+003,1.001042e+002
3.799079e+003,1.001107e+002
3.801008e+003,1.001142e+002
3.802936e+003,1.001136e+002
3.804865e+003,1.001088e+002
3.806793e+003,1.001006e+002
3.808721e+003,1.000904e+002
3.810650e+003,1.000797e+002
3.812578e+003,1.000699e+002
3.814507e+003,1.000617e+002
3.816435e+003,1.000554e+002
3.818364e+003,1.000505e+002
3.820292e+003,1.000464e+002
3.822221e+003,1.000427e+002
3.824149e+003,1.000396e+002
3.826078e+003,1.000379e+002
3.828006e+003,1.000390e+002
3.829935e+003,1.000442e+002
3.831863e+003,1.000542e+002
3.833792e+003,1.000683e+002
3.835720e+003,1.000845e+002
3.837648e+003,1.001002e+002
3.839577e+003,1.001131e+002
3.841505e+003,1.001220e+002
3.843434e+003,1.001272e+002
3.845362e+003,1.001298e+002
3.847291e+003,1.001313e+002
3.849219e+003,1.001333e+002
3.851148e+003,1.001365e+002
3.853076e+003,1.001409e+002
3.855005e+003,1.001461e+002
3.856933e+003,1.001511e+002
3.858862e+003,1.001557e+002
3.860790e+003,1.001595e+002
3.862719e+003,1.001626e+002
3.864647e+003,1.001646e+002
3.866575e+003,1.001654e+002
3.868504e+003,1.001643e+002
3.870432e+003,1.001610e+002
3.872361e+003,1.001556e+002
3.874289e+003,1.001488e+002
3.876218e+003,1.001416e+002
3.878146e+003,1.001352e+002
3.880075e+003,1.001305e+002
3.882003e+003,1.001280e+002
3.883932e+003,1.001273e+002
3.885860e+003,1.001276e+002
3.887789e+003,1.001283e+002
3.889717e+003,1.001290e+002
3.891646e+003,1.001305e+002
3.893574e+003,1.001338e+002
3.895502e+003,1.001406e+002
3.897431e+003,1.001518e+002
3.899359e+003,1.001671e+002
3.901288e+003,1.001850e+002
3.903216e+003,1.002027e+002
3.905145e+003,1.002171e+002
3.907073e+003,1.002263e+002
3.909002e+003,1.002289e+002
3.910930e+003,1.002248e+002
3.912859e+003,1.002149e+002
3.914787e+003,1.002007e+002
3.916716e+003,1.001846e+002
3.918644e+003,1.001689e+002
3.920573e+003,1.001562e+002
3.922501e+003,1.001484e+002
3.924429e+003,1.001464e+002
3.926358e+003,1.001501e+002
3.928286e+003,1.001586e+002
3.930215e+003,1.001701e+002
3.932143e+003,1.001825e+002
3.934072e+003,1.001939e+002
3.936000e+003,1.002025e+002
3.937929e+003,1.002073e+002
3.939857e+003,1.002079e+002
3.941786e+003,1.002050e+002
3.943714e+003,1.001996e+002
3.945643e+003,1.001935e+002
3.947571e+003,1.001882e+002
3.949500e+003,1.001853e+002
3.951428e+003,1.001855e+002
3.953356e+003,1.001894e+002
3.955285e+003,1.001965e+002
3.957213e+003,1.002057e+002
3.959142e+003,1.002158e+002
3.961070e+003,1.002251e+002
3.962999e+003,1.002320e+002
3.964927e+003,1.002351e+002
3.966856e+003,1.002340e+002
3.968784e+003,1.002288e+002
3.970713e+003,1.002210e+002
3.972641e+003,1.002121e+002
3.974570e+003,1.002048e+002
3.976498e+003,1.002009e+002
3.978427e+003,1.002018e+002
3.980355e+003,1.002079e+002
3.982283e+003,1.002187e+002
3.984212e+003,1.002328e+002
3.986140e+003,1.002485e+002
3.988069e+003,1.002642e+002
3.989997e+003,1.002783e+002
3.991926e+003,1.002897e+002
3.993854e+003,1.002970e+002
3.995783e+003,1.002995e+002
3.997711e+003,1.002964e+002
3.999640e+003,1.002876e+002
4.001568e+003,0.000000e+000
