3.991926e+002,2.241924e+001
4.011211e+002,2.262949e+001
4.030496e+002,2.287355e+001
4.049780e+002,2.308463e+001
4.069065e+002,2.321173e+001
4.088350e+002,2.322453e+001
4.107634e+002,2.312011e+001
4.126919e+002,2.291595e+001
4.146204e+002,2.264180e+001
4.165488e+002,2.232849e+001
4.184773e+002,2.200078e+001
4.204058e+002,2.167535e+001
4.223342e+002,2.136333e+001
4.242627e+002,2.107700e+001
4.261912e+002,2.083334e+001
4.281196e+002,2.064977e+001
4.300481e+002,2.054130e+001
4.319766e+002,2.051300e+001
4.339050e+002,2.055706e+001
4.358335e+002,2.065474e+001
4.377620e+002,2.078176e+001
4.396904e+002,2.091665e+001
4.416189e+002,2.104482e+001
4.435474e+002,2.116094e+001
4.454758e+002,2.126424e+001
4.474043e+002,2.135221e+001
4.493328e+002,2.141724e+001
4.512612e+002,2.144623e+001
4.531897e+002,2.142532e+001
4.551182e+002,2.134727e+001
4.570466e+002,2.121454e+001
4.589751e+002,2.103938e+001
4.609036e+002,2.083743e+001
4.628320e+002,2.062267e+001
4.647605e+002,2.040246e+001
4.666890e+002,2.017867e+001
4.686174e+002,1.995254e+001
4.705459e+002,1.972924e+001
4.724744e+002,1.952048e+001
4.744028e+002,1.934358e+001
4.763313e+002,1.921525e+001
4.782598e+002,1.914879e+001
4.801882e+002,1.915161e+001
4.821167e+002,1.922596e+001
4.840452e+002,1.937320e+001
4.859736e+002,1.959593e+001
4.879021e+002,1.989788e+001
4.898306e+002,2.028163e+001
4.917590e+002,2.074419e+001
4.936875e+002,2.127456e+001
4.956160e+002,2.185283e+001
4.975444e+002,2.245579e+001
4.994729e+002,2.306109e+001
5.014014e+002,2.365214e+001
5.033298e+002,2.422206e+001
5.052583e+002,2.477176e+001
5.071868e+002,2.530713e+001
5.091152e+002,2.583464e+001
5.110437e+002,2.635989e+001
5.129722e+002,2.688708e+001
5.149006e+002,2.742027e+001
5.168291e+002,2.796469e+001
5.187576e+002,2.852525e+001
5.206860e+002,2.910374e+001
5.226145e+002,2.969500e+001
5.245430e+002,3.028579e+001
5.264714e+002,3.085520e+001
5.283999e+002,3.137872e+001
5.303284e+002,3.183562e+001
5.322568e+002,3.221060e+001
5.341853e+002,3.249630e+001
5.361138e+002,3.269221e+001
5.380422e+002,3.280165e+001
5.399707e+002,3.283016e+001
5.418992e+002,3.278526e+001
5.438276e+002,3.267944e+001
5.457561e+002,3.253185e+001
5.476846e+002,3.236998e+001
5.496130e+002,3.222992e+001
5.515415e+002,3.214756e+001
5.534700e+002,3.215473e+001
5.553984e+002,3.227179e+001
5.573269e+002,3.250248e+001
5.592554e+002,3.283521e+001
5.611838e+002,3.324567e+001
5.631123e+002,3.370440e+001
5.650408e+002,3.417856e+001
5.669692e+002,3.463884e+001
5.688977e+002,3.506238e+001
5.708262e+002,3.543269e+001
5.727546e+002,3.574301e+001
5.746831e+002,3.599617e+001
5.766116e+002,3.620463e+001
5.785400e+002,3.638692e+001
5.804685e+002,3.656516e+001
5.823970e+002,3.675997e+001
5.843254e+002,3.698444e+001
5.862539e+002,3.724262e+001
5.881824e+002,3.752788e+001
5.901108e+002,3.782578e+001
5.920393e+002,3.811596e+001
5.939678e+002,3.837774e+001
5.958962e+002,3.859408e+001
5.978247e+002,3.875307e+001
5.997532e+002,3.885144e+001
6.016816e+002,3.889516e+001
6.036101e+002,3.890019e+001
6.055386e+002,3.888903e+001
6.074670e+002,3.888943e+001
6.093955e+002,3.892857e+001
6.113240e+002,3.902544e+001
6.132524e+002,3.918837e+001
6.151809e+002,3.941138e+001
6.171094e+002,3.967704e+001
6.190378e+002,3.995990e+001
6.209663e+002,4.023499e+001
6.228948e+002,4.048363e+001
6.248232e+002,4.069495e+001
6.267517e+002,4.086685e+001
6.286802e+002,4.100246e+001
6.306086e+002,4.110668e+001
6.325371e+002,4.118312e+001
6.344656e+002,4.123322e+001
6.363940e+002,4.125602e+001
6.383225e+002,4.124888e+001
6.402510e+002,4.120716e+001
6.421794e+002,4.112413e+001
6.441079e+002,4.099146e+001
6.460364e+002,4.079984e+001
6.479648e+002,4.054332e+001
6.498933e+002,4.022351e+001
6.518218e+002,3.985426e+001
6.537502e+002,3.946125e+001
6.556787e+002,3.908189e+001
6.576072e+002,3.876218e+001
6.595356e+002,3.854649e+001
6.614641e+002,3.847614e+001
6.633926e+002,3.857959e+001
6.653210e+002,3.886440e+001
6.672495e+002,3.931260e+001
6.691780e+002,3.988198e+001
6.711064e+002,4.051766e+001
6.730349e+002,4.116135e+001
6.749634e+002,4.176735e+001
6.768918e+002,4.230553e+001
6.788203e+002,4.275804e+001
6.807488e+002,4.311765e+001
6.826772e+002,4.338279e+001
6.846057e+002,4.355677e+001
6.865342e+002,4.364764e+001
6.884626e+002,4.366870e+001
6.903911e+002,4.363729e+001
6.923196e+002,4.357138e+001
6.942480e+002,4.348953e+001
6.961765e+002,4.340830e+001
6.981050e+002,4.334188e+001
7.000334e+002,4.330408e+001
7.019619e+002,4.330675e+001
7.038904e+002,4.335977e+001
7.058188e+002,4.347023e+001
7.077473e+002,4.364063e+001
7.096758e+002,4.386898e+001
7.116042e+002,4.414874e+001
7.135327e+002,4.447064e+001
7.154612e+002,4.482250e+001
7.173896e+002,4.519058e+001
7.193181e+002,4.556123e+001
7.212466e+002,4.591977e+001
7.231750e+002,4.625261e+001
7.251035e+002,4.654829e+001
7.270320e+002,4.679759e+001
7.289604e+002,4.699557e+001
7.308889e+002,4.714135e+001
7.328174e+002,4.723811e+001
7.347458e+002,4.729181e+001
7.366743e+002,4.730981e+001
7.386028e+002,4.729950e+001
7.405313e+002,4.726666e+001
7.424597e+002,4.721609e+001
7.443882e+002,4.715154e+001
7.463167e+002,4.707615e+001
7.482451e+002,4.699278e+001
7.501736e+002,4.690327e+001
7.521021e+002,4.680790e+001
7.540305e+002,4.670472e+001
7.559590e+002,4.659052e+001
7.578875e+002,4.646177e+001
7.598159e+002,4.631609e+001
7.617444e+002,4.615332e+001
7.636729e+002,4.597532e+001
7.656013e+002,4.578476e+001
7.675298e+002,4.558310e+001
7.694582e+002,4.536929e+001
7.713867e+002,4.513917e+001
7.733151e+002,4.488683e+001
7.752436e+002,4.460578e+001
7.771721e+002,4.429131e+001
7.791005e+002,4.394200e+001
7.810290e+002,4.356035e+001
7.829575e+002,4.315233e+001
7.848859e+002,4.272765e+001
7.868144e+002,4.230027e+001
7.887429e+002,4.188695e+001
7.906713e+002,4.150884e+001
7.925998e+002,4.118947e+001
7.945283e+002,4.094981e+001
7.964567e+002,4.080605e+001
7.983852e+002,4.076332e+001
8.003137e+002,4.081404e+001
8.022421e+002,4.093709e+001
8.041706e+002,4.110313e+001
8.060991e+002,4.128020e+001
8.080275e+002,4.143729e+001
8.099560e+002,4.155136e+001
8.118845e+002,4.160676e+001
8.138129e+002,4.159478e+001
8.157414e+002,4.151287e+001
8.176699e+002,4.136281e+001
8.195983e+002,4.115078e+001
8.215268e+002,4.088680e+001
8.234553e+002,4.058607e+001
8.253837e+002,4.026705e+001
8.273122e+002,3.994829e+001
8.292407e+002,3.964696e+001
8.311691e+002,3.937378e+001
8.330976e+002,3.913155e+001
8.350261e+002,3.891461e+001
8.369545e+002,3.871103e+001
8.388830e+002,3.850495e+001
8.408115e+002,3.828074e+001
8.427399e+002,3.802849e+001
8.446684e+002,3.774651e+001
8.465969e+002,3.744444e+001
8.485253e+002,3.714177e+001
8.504538e+002,3.686764e+001
8.523823e+002,3.665355e+001
8.543107e+002,3.652583e+001
8.562392e+002,3.650061e+001
8.581677e+002,3.657646e+001
8.600961e+002,3.673370e+001
8.620246e+002,3.693532e+001
8.639531e+002,3.713764e+001
8.658815e+002,3.729498e+001
8.678100e+002,3.736846e+001
8.697385e+002,3.733423e+001
8.716669e+002,3.718216e+001
8.735954e+002,3.691606e+001
8.755239e+002,3.654876e+001
8.774523e+002,3.609916e+001
8.793808e+002,3.558754e+001
8.813093e+002,3.503340e+001
8.832377e+002,3.445645e+001
8.851662e+002,3.387414e+001
8.870947e+002,3.330215e+001
8.890231e+002,3.275375e+001
8.909516e+002,3.223759e+001
8.928801e+002,3.175839e+001
8.948085e+002,3.131689e+001
8.967370e+002,3.091074e+001
8.986655e+002,3.053512e+001
9.005939e+002,3.018311e+001
9.025224e+002,2.984585e+001
9.044509e+002,2.951106e+001
9.063793e+002,2.916422e+001
9.083078e+002,2.878990e+001
9.102363e+002,2.837266e+001
9.121647e+002,2.790108e+001
9.140932e+002,2.736891e+001
9.160217e+002,2.677601e+001
9.179501e+002,2.612765e+001
9.198786e+002,2.543307e+001
9.218071e+002,2.470370e+001
9.237355e+002,2.395090e+001
9.256640e+002,2.318686e+001
9.275925e+002,2.242384e+001
9.295209e+002,2.167359e+001
9.314494e+002,2.094819e+001
9.333779e+002,2.025774e+001
9.353063e+002,1.960943e+001
9.372348e+002,1.900754e+001
9.391633e+002,1.845329e+001
9.410917e+002,1.794630e+001
9.430202e+002,1.748594e+001
9.449487e+002,1.707210e+001
9.468771e+002,1.670530e+001
9.488056e+002,1.638614e+001
9.507341e+002,1.611481e+001
9.526625e+002,1.589128e+001
9.545910e+002,1.571597e+001
9.565195e+002,1.559029e+001
9.584479e+002,1.551705e+001
9.603764e+002,1.549891e+001
9.623049e+002,1.553659e+001
9.642333e+002,1.562685e+001
9.661618e+002,1.576221e+001
9.680903e+002,1.593162e+001
9.700187e+002,1.612298e+001
9.719472e+002,1.632712e+001
9.738757e+002,1.653855e+001
9.758041e+002,1.675578e+001
9.777326e+002,1.697889e+001
9.796611e+002,1.720605e+001
9.815895e+002,1.743114e+001
9.835180e+002,1.764398e+001
9.854465e+002,1.783171e+001
9.873749e+002,1.798425e+001
9.893034e+002,1.809793e+001
9.912319e+002,1.817790e+001
9.931603e+002,1.823674e+001
9.950888e+002,1.829172e+001
9.970173e+002,1.835994e+001
9.989457e+002,1.845283e+001
1.000874e+003,1.857538e+001
1.002803e+003,1.872573e+001
1.004731e+003,1.889778e+001
1.006660e+003,1.908303e+001
1.008588e+003,1.927290e+001
1.010517e+003,1.945957e+001
1.012445e+003,1.963529e+001
1.014373e+003,1.979373e+001
1.016302e+003,1.993117e+001
1.018230e+003,2.004930e+001
1.020159e+003,2.015710e+001
1.022087e+003,2.027242e+001
1.024016e+003,2.041988e+001
1.025944e+003,2.062331e+001
1.027873e+003,2.090113e+001
1.029801e+003,2.125776e+001
1.031730e+003,2.168088e+001
1.033658e+003,2.214064e+001
1.035587e+003,2.259723e+001
1.037515e+003,2.301103e+001
1.039444e+003,2.335035e+001
1.041372e+003,2.360400e+001
1.043301e+003,2.378522e+001
1.045229e+003,2.393385e+001
1.047157e+003,2.410603e+001
1.049086e+003,2.436971e+001
1.051014e+003,2.479098e+001
1.052943e+003,2.541783e+001
1.054871e+003,2.627662e+001
1.056800e+003,2.736386e+001
1.058728e+003,2.864981e+001
1.060657e+003,3.008087e+001
1.062585e+003,3.159334e+001
1.064514e+003,3.312445e+001
1.066442e+003,3.461712e+001
1.068371e+003,3.603204e+001
1.070299e+003,3.734623e+001
1.072228e+003,3.855103e+001
1.074156e+003,3.964738e+001
1.076084e+003,4.063990e+001
1.078013e+003,4.153183e+001
1.079941e+003,4.232273e+001
1.081870e+003,4.300872e+001
1.083798e+003,4.358450e+001
1.085727e+003,4.404613e+001
1.087655e+003,4.439247e+001
1.089584e+003,4.462629e+001
1.091512e+003,4.475374e+001
1.093441e+003,4.478465e+001
1.095369e+003,4.473163e+001
1.097298e+003,4.461186e+001
1.099226e+003,4.444884e+001
1.101155e+003,4.427008e+001
1.103083e+003,4.410875e+001
1.105011e+003,4.399914e+001
1.106940e+003,4.396970e+001
1.108868e+003,4.404202e+001
1.110797e+003,4.422533e+001
1.112725e+003,4.451674e+001
1.114654e+003,4.490342e+001
1.116582e+003,4.536732e+001
1.118511e+003,4.588970e+001
1.120439e+003,4.645328e+001
1.122368e+003,4.704478e+001
1.124296e+003,4.765213e+001
1.126225e+003,4.826131e+001
1.128153e+003,4.885537e+001
1.130082e+003,4.941117e+001
1.132010e+003,4.990182e+001
1.133938e+003,5.030214e+001
1.135867e+003,5.059001e+001
1.137795e+003,5.075262e+001
1.139724e+003,5.078820e+001
1.141652e+003,5.070612e+001
1.143581e+003,5.052506e+001
1.145509e+003,5.027122e+001
1.147438e+003,4.997833e+001
1.149366e+003,4.968262e+001
1.151295e+003,4.942519e+001
1.153223e+003,4.925014e+001
1.155151e+003,4.919742e+001
1.157080e+003,4.930307e+001
1.159008e+003,4.959033e+001
1.160937e+003,5.006398e+001
1.162865e+003,5.070786e+001
1.164794e+003,5.148580e+001
1.166722e+003,5.234878e+001
1.168651e+003,5.323896e+001
1.170579e+003,5.410495e+001
1.172508e+003,5.490670e+001
1.174436e+003,5.561892e+001
1.176365e+003,5.623343e+001
1.178293e+003,5.675420e+001
1.180222e+003,5.719275e+001
1.182150e+003,5.756189e+001
1.184078e+003,5.787364e+001
1.186007e+003,5.813737e+001
1.187935e+003,5.836050e+001
1.189864e+003,5.855156e+001
1.191792e+003,5.872114e+001
1.193721e+003,5.888231e+001
1.195649e+003,5.905095e+001
1.197578e+003,5.924202e+001
1.199506e+003,5.946792e+001
1.201435e+003,5.973638e+001
1.203363e+003,6.004852e+001
1.205292e+003,6.039899e+001
1.207220e+003,6.077661e+001
1.209149e+003,6.116716e+001
1.211077e+003,6.155421e+001
1.213005e+003,6.192268e+001
1.214934e+003,6.226154e+001
1.216862e+003,6.256425e+001
1.218791e+003,6.283029e+001
1.220719e+003,6.306436e+001
1.222648e+003,6.327530e+001
1.224576e+003,6.347337e+001
1.226505e+003,6.366874e+001
1.228433e+003,6.387002e+001
1.230362e+003,6.408272e+001
1.232290e+003,6.431005e+001
1.234219e+003,6.455299e+001
1.236147e+003,6.481125e+001
1.238076e+003,6.508343e+001
1.240004e+003,6.536740e+001
1.241932e+003,6.566047e+001
1.243861e+003,6.595911e+001
1.245789e+003,6.625994e+001
1.247718e+003,6.656041e+001
1.249646e+003,6.685933e+001
1.251575e+003,6.715746e+001
1.253503e+003,6.745696e+001
1.255432e+003,6.776038e+001
1.257360e+003,6.806879e+001
1.259289e+003,6.838063e+001
1.261217e+003,6.869117e+001
1.263146e+003,6.899379e+001
1.265074e+003,6.928187e+001
1.267003e+003,6.955154e+001
1.268931e+003,6.980327e+001
1.270859e+003,7.004249e+001
1.272788e+003,7.027781e+001
1.274716e+003,7.051910e+001
1.276645e+003,7.077532e+001
1.278573e+003,7.105160e+001
1.280502e+003,7.134819e+001
1.282430e+003,7.165953e+001
1.284359e+003,7.197583e+001
1.286287e+003,7.228304e+001
1.288216e+003,7.256531e+001
1.290144e+003,7.280795e+001
1.292073e+003,7.299700e+001
1.294001e+003,7.312210e+001
1.295930e+003,7.317712e+001
1.297858e+003,7.316052e+001
1.299786e+003,7.307632e+001
1.301715e+003,7.293456e+001
1.303643e+003,7.275256e+001
1.305572e+003,7.255259e+001
1.307500e+003,7.236272e+001
1.309429e+003,7.221356e+001
1.311357e+003,7.213125e+001
1.313286e+003,7.213508e+001
1.315214e+003,7.223031e+001
1.317143e+003,7.240643e+001
1.319071e+003,7.263716e+001
1.321000e+003,7.288776e+001
1.322928e+003,7.312424e+001
1.324857e+003,7.331961e+001
1.326785e+003,7.346265e+001
1.328714e+003,7.355833e+001
1.330642e+003,7.362588e+001
1.332570e+003,7.369052e+001
1.334499e+003,7.377730e+001
1.336427e+003,7.390195e+001
1.338356e+003,7.406547e+001
1.340284e+003,7.425405e+001
1.342213e+003,7.444407e+001
1.344141e+003,7.461156e+001
1.346070e+003,7.473714e+001
1.347998e+003,7.481197e+001
1.349927e+003,7.483718e+001
1.351855e+003,7.482156e+001
1.353784e+003,7.477739e+001
1.355712e+003,7.471783e+001
1.357641e+003,7.465523e+001
1.359569e+003,7.459917e+001
1.361497e+003,7.455795e+001
1.363426e+003,7.453906e+001
1.365354e+003,7.454939e+001
1.367283e+003,7.459602e+001
1.369211e+003,7.468484e+001
1.371140e+003,7.481892e+001
1.373068e+003,7.499702e+001
1.374997e+003,7.521265e+001
1.376925e+003,7.545418e+001
1.378854e+003,7.570528e+001
1.380782e+003,7.594890e+001
1.382711e+003,7.616830e+001
1.384639e+003,7.634919e+001
1.386568e+003,7.648253e+001
1.388496e+003,7.656429e+001
1.390424e+003,7.659666e+001
1.392353e+003,7.658696e+001
1.394281e+003,7.654761e+001
1.396210e+003,7.649297e+001
1.398138e+003,7.643605e+001
1.400067e+003,7.638710e+001
1.401995e+003,7.635085e+001
1.403924e+003,7.632661e+001
1.405852e+003,7.630879e+001
1.407781e+003,7.628847e+001
1.409709e+003,7.625401e+001
1.411638e+003,7.619281e+001
1.413566e+003,7.609496e+001
1.415495e+003,7.595642e+001
1.417423e+003,7.578384e+001
1.419351e+003,7.559464e+001
1.421280e+003,7.541610e+001
1.423208e+003,7.527662e+001
1.425137e+003,7.519807e+001
1.427065e+003,7.519302e+001
1.428994e+003,7.526196e+001
1.430922e+003,7.539489e+001
1.432851e+003,7.557240e+001
1.434779e+003,7.577073e+001
1.436708e+003,7.596470e+001
1.438636e+003,7.613350e+001
1.440565e+003,7.626597e+001
1.442493e+003,7.635965e+001
1.444422e+003,7.641938e+001
1.446350e+003,7.645355e+001
1.448278e+003,7.647304e+001
1.450207e+003,7.648955e+001
1.452135e+003,7.651496e+001
1.454064e+003,7.656080e+001
1.455992e+003,7.663418e+001
1.457921e+003,7.673573e+001
1.459849e+003,7.685922e+001
1.461778e+003,7.699500e+001
1.463706e+003,7.713258e+001
1.465635e+003,7.726340e+001
1.467563e+003,7.738193e+001
1.469492e+003,7.748482e+001
1.471420e+003,7.757136e+001
1.473349e+003,7.764327e+001
1.475277e+003,7.770465e+001
1.477205e+003,7.776070e+001
1.479134e+003,7.781648e+001
1.481062e+003,7.787595e+001
1.482991e+003,7.794093e+001
1.484919e+003,7.801065e+001
1.486848e+003,7.808125e+001
1.488776e+003,7.814676e+001
1.490705e+003,7.820010e+001
1.492633e+003,7.823537e+001
1.494562e+003,7.824997e+001
1.496490e+003,7.824474e+001
1.498419e+003,7.822300e+001
1.500347e+003,7.818874e+001
1.502276e+003,7.814562e+001
1.504204e+003,7.809610e+001
1.506132e+003,7.804152e+001
1.508061e+003,7.798249e+001
1.509989e+003,7.791916e+001
1.511918e+003,7.785150e+001
1.513846e+003,7.777921e+001
1.515775e+003,7.770204e+001
1.517703e+003,7.762020e+001
1.519632e+003,7.753516e+001
1.521560e+003,7.744970e+001
1.523489e+003,7.736758e+001
1.525417e+003,7.729195e+001
1.527346e+003,7.722395e+001
1.529274e+003,7.716222e+001
1.531203e+003,7.710305e+001
1.533131e+003,7.704124e+001
1.535059e+003,7.697142e+001
1.536988e+003,7.689059e+001
1.538916e+003,7.680085e+001
1.540845e+003,7.670992e+001
1.542773e+003,7.662720e+001
1.544702e+003,7.655870e+001
1.546630e+003,7.650363e+001
1.548559e+003,7.645582e+001
1.550487e+003,7.640531e+001
1.552416e+003,7.634175e+001
1.554344e+003,7.625750e+001
1.556273e+003,7.615112e+001
1.558201e+003,7.602954e+001
1.560130e+003,7.590488e+001
1.562058e+003,7.578809e+001
1.563986e+003,7.568323e+001
1.565915e+003,7.558753e+001
1.567843e+003,7.549429e+001
1.569772e+003,7.539693e+001
1.571700e+003,7.529128e+001
1.573629e+003,7.517699e+001
1.575557e+003,7.505663e+001
1.577486e+003,7.493343e+001
1.579414e+003,7.480879e+001
1.581343e+003,7.468132e+001
1.583271e+003,7.454749e+001
1.585200e+003,7.440347e+001
1.587128e+003,7.424680e+001
1.589057e+003,7.407702e+001
1.590985e+003,7.389543e+001
1.592913e+003,7.370390e+001
1.594842e+003,7.350381e+001
1.596770e+003,7.329533e+001
1.598699e+003,7.307825e+001
1.600627e+003,7.285286e+001
1.602556e+003,7.262052e+001
1.604484e+003,7.238375e+001
1.606413e+003,7.214458e+001
1.608341e+003,7.190363e+001
1.610270e+003,7.165987e+001
1.612198e+003,7.141187e+001
1.614127e+003,7.116012e+001
1.616055e+003,7.090939e+001
1.617984e+003,7.066838e+001
1.619912e+003,7.044775e+001
1.621840e+003,7.025582e+001
1.623769e+003,7.009563e+001
1.625697e+003,6.996546e+001
1.627626e+003,6.986113e+001
1.629554e+003,6.977927e+001
1.631483e+003,6.971878e+001
1.633411e+003,6.968063e+001
1.635340e+003,6.966592e+001
1.637268e+003,6.967365e+001
1.639197e+003,6.970026e+001
1.641125e+003,6.974055e+001
1.643054e+003,6.978961e+001
1.644982e+003,6.984482e+001
1.646911e+003,6.990589e+001
1.648839e+003,6.997384e+001
1.650767e+003,7.004865e+001
1.652696e+003,7.012798e+001
1.654624e+003,7.020766e+001
1.656553e+003,7.028413e+001
1.658481e+003,7.035608e+001
1.660410e+003,7.042494e+001
1.662338e+003,7.049370e+001
1.664267e+003,7.056569e+001
1.666195e+003,7.064301e+001
1.668124e+003,7.072556e+001
1.670052e+003,7.081087e+001
1.671981e+003,7.089569e+001
1.673909e+003,7.097733e+001
1.675838e+003,7.105513e+001
1.677766e+003,7.113035e+001
1.679694e+003,7.120512e+001
1.681623e+003,7.128076e+001
1.683551e+003,7.135690e+001
1.685480e+003,7.143171e+001
1.687408e+003,7.150324e+001
1.689337e+003,7.157069e+001
1.691265e+003,7.163499e+001
1.693194e+003,7.169845e+001
1.695122e+003,7.176373e+001
1.697051e+003,7.183262e+001
1.698979e+003,7.190482e+001
1.700908e+003,7.197845e+001
1.702836e+003,7.205170e+001
1.704765e+003,7.212425e+001
1.706693e+003,7.219818e+001
1.708621e+003,7.227705e+001
1.710550e+003,7.236420e+001
1.712478e+003,7.246159e+001
1.714407e+003,7.256830e+001
1.716335e+003,7.268058e+001
1.718264e+003,7.279330e+001
1.720192e+003,7.290265e+001
1.722121e+003,7.300755e+001
1.724049e+003,7.310970e+001
1.725978e+003,7.321216e+001
1.727906e+003,7.331779e+001
1.729835e+003,7.342828e+001
1.731763e+003,7.354378e+001
1.733692e+003,7.366333e+001
1.735620e+003,7.378586e+001
1.737548e+003,7.391113e+001
1.739477e+003,7.404000e+001
1.741405e+003,7.417353e+001
1.743334e+003,7.431190e+001
1.745262e+003,7.445396e+001
1.747191e+003,7.459725e+001
1.749119e+003,7.473893e+001
1.751048e+003,7.487670e+001
1.752976e+003,7.500963e+001
1.754905e+003,7.513783e+001
1.756833e+003,7.526165e+001
1.758762e+003,7.538128e+001
1.760690e+003,7.549646e+001
1.762619e+003,7.560751e+001
1.764547e+003,7.571597e+001
1.766475e+003,7.582529e+001
1.768404e+003,7.593982e+001
1.770332e+003,7.606302e+001
1.772261e+003,7.619558e+001
1.774189e+003,7.633440e+001
1.776118e+003,7.647371e+001
1.778046e+003,7.660751e+001
1.779975e+003,7.673232e+001
1.781903e+003,7.684798e+001
1.783832e+003,7.695727e+001
1.785760e+003,7.706410e+001
1.787689e+003,7.717186e+001
1.789617e+003,7.728169e+001
1.791546e+003,7.739239e+001
1.793474e+003,7.750142e+001
1.795402e+003,7.760695e+001
1.797331e+003,7.770923e+001
1.799259e+003,7.781058e+001
1.801188e+003,7.791393e+001
1.803116e+003,7.802119e+001
1.805045e+003,7.813227e+001
1.806973e+003,7.824520e+001
1.808902e+003,7.835705e+001
1.810830e+003,7.846559e+001
1.812759e+003,7.857037e+001
1.814687e+003,7.867231e+001
1.816616e+003,7.877293e+001
1.818544e+003,7.887286e+001
1.820473e+003,7.897109e+001
1.822401e+003,7.906541e+001
1.824329e+003,7.915402e+001
1.826258e+003,7.923734e+001
1.828186e+003,7.931825e+001
1.830115e+003,7.940157e+001
1.832043e+003,7.949117e+001
1.833972e+003,7.958794e+001
1.835900e+003,7.968945e+001
1.837829e+003,7.979108e+001
1.839757e+003,7.988861e+001
1.841686e+003,7.998044e+001
1.843614e+003,8.006857e+001
1.845543e+003,8.015768e+001
1.847471e+003,8.025253e+001
1.849400e+003,8.035465e+001
1.851328e+003,8.046169e+001
1.853256e+003,8.056817e+001
1.855185e+003,8.066872e+001
1.857113e+003,8.075993e+001
1.859042e+003,8.084203e+001
1.860970e+003,8.091831e+001
1.862899e+003,8.099358e+001
1.864827e+003,8.107193e+001
1.866756e+003,8.115500e+001
1.868684e+003,8.124248e+001
1.870613e+003,8.133327e+001
1.872541e+003,8.142700e+001
1.874470e+003,8.152451e+001
1.876398e+003,8.162681e+001
1.878327e+003,8.173331e+001
1.880255e+003,8.184061e+001
1.882183e+003,8.194345e+001
1.884112e+003,8.203595e+001
1.886040e+003,8.211510e+001
1.887969e+003,8.218258e+001
1.889897e+003,8.224470e+001
1.891826e+003,8.230941e+001
1.893754e+003,8.238190e+001
1.895683e+003,8.246210e+001
1.897611e+003,8.254448e+001
1.899540e+003,8.262091e+001
1.901468e+003,8.268486e+001
1.903396e+003,8.273508e+001
1.905325e+003,8.277640e+001
1.907253e+003,8.281762e+001
1.909182e+003,8.286693e+001
1.911110e+003,8.292917e+001
1.913039e+003,8.300372e+001
1.914967e+003,8.308655e+001
1.916896e+003,8.317319e+001
1.918824e+003,8.326205e+001
1.920753e+003,8.335526e+001
1.922681e+003,8.345704e+001
1.924610e+003,8.356981e+001
1.926538e+003,8.369204e+001
1.928467e+003,8.381741e+001
1.930395e+003,8.393845e+001
1.932323e+003,8.404954e+001
1.934252e+003,8.415025e+001
1.936180e+003,8.424556e+001
1.938109e+003,8.434365e+001
1.940037e+003,8.445096e+001
1.941966e+003,8.456913e+001
1.943894e+003,8.469477e+001
1.945823e+003,8.482314e+001
1.947751e+003,8.495284e+001
1.949680e+003,8.508888e+001
1.951608e+003,8.524082e+001
1.953537e+003,8.541773e+001
1.955465e+003,8.562185e+001
1.957394e+003,8.584486e+001
1.959322e+003,8.606860e+001
1.961250e+003,8.627228e+001
1.963179e+003,8.644272e+001
1.965107e+003,8.658035e+001
1.967036e+003,8.669789e+001
1.968964e+003,8.680964e+001
1.970893e+003,8.692052e+001
1.972821e+003,8.701871e+001
1.974750e+003,8.708051e+001
1.976678e+003,8.708302e+001
1.978607e+003,8.702030e+001
1.980535e+003,8.690662e+001
1.982464e+003,8.677216e+001
1.984392e+003,8.664690e+001
1.986321e+003,8.655280e+001
1.988249e+003,8.649741e+001
1.990177e+003,8.647633e+001
1.992106e+003,8.647926e+001
1.994034e+003,8.649732e+001
1.995963e+003,8.652697e+001
1.997891e+003,8.656863e+001
1.999820e+003,8.662260e+001
2.001748e+003,8.668470e+001
2.003677e+003,8.674329e+001
2.005605e+003,8.678386e+001
2.007534e+003,8.679549e+001
2.009462e+003,8.677833e+001
2.011391e+003,8.674516e+001
2.013319e+003,8.671799e+001
2.015248e+003,8.671646e+001
2.017176e+003,8.674908e+001
2.019104e+003,8.681042e+001
2.021033e+003,8.688420e+001
2.022961e+003,8.695255e+001
2.024890e+003,8.700203e+001
2.026818e+003,8.702884e+001
2.028747e+003,8.703535e+001
2.030675e+003,8.702367e+001
2.032604e+003,8.699106e+001
2.034532e+003,8.692931e+001
2.036461e+003,8.683021e+001
2.038389e+003,8.669299e+001
2.040318e+003,8.652673e+001
2.042246e+003,8.634812e+001
2.044175e+003,8.617368e+001
2.046103e+003,8.601431e+001
2.048031e+003,8.587134e+001
2.049960e+003,8.573961e+001
2.051888e+003,8.561242e+001
2.053817e+003,8.548654e+001
2.055745e+003,8.536452e+001
2.057674e+003,8.525322e+001
2.059602e+003,8.515929e+001
2.061531e+003,8.508598e+001
2.063459e+003,8.503046e+001
2.065388e+003,8.498503e+001
2.067316e+003,8.493991e+001
2.069245e+003,8.488784e+001
2.071173e+003,8.482648e+001
2.073102e+003,8.475823e+001
2.075030e+003,8.468759e+001
2.076958e+003,8.461793e+001
2.078887e+003,8.454991e+001
2.080815e+003,8.448152e+001
2.082744e+003,8.440972e+001
2.084672e+003,8.433270e+001
2.086601e+003,8.425114e+001
2.088529e+003,8.416815e+001
2.090458e+003,8.408793e+001
2.092386e+003,8.401392e+001
2.094315e+003,8.394818e+001
2.096243e+003,8.389119e+001
2.098172e+003,8.384267e+001
2.100100e+003,8.380231e+001
2.102029e+003,8.376970e+001
2.103957e+003,8.374371e+001
2.105885e+003,8.372142e+001
2.107814e+003,8.369859e+001
2.109742e+003,8.367075e+001
2.111671e+003,8.363565e+001
2.113599e+003,8.359518e+001
2.115528e+003,8.355639e+001
2.117456e+003,8.352994e+001
2.119385e+003,8.352621e+001
2.121313e+003,8.355278e+001
2.123242e+003,8.361112e+001
2.125170e+003,8.369670e+001
2.127099e+003,8.379987e+001
2.129027e+003,8.391093e+001
2.130956e+003,8.402351e+001
2.132884e+003,8.413750e+001
2.134813e+003,8.425874e+001
2.136741e+003,8.439630e+001
2.138669e+003,8.455772e+001
2.140598e+003,8.474578e+001
2.142526e+003,8.495797e+001
2.144455e+003,8.518915e+001
2.146383e+003,8.543504e+001
2.148312e+003,8.569199e+001
2.150240e+003,8.595400e+001
2.152169e+003,8.620732e+001
2.154097e+003,8.642453e+001
2.156026e+003,8.657019e+001
2.157954e+003,8.661345e+001
2.159883e+003,8.654660e+001
2.161811e+003,8.639230e+001
2.163740e+003,8.619749e+001
2.165668e+003,8.601254e+001
2.167596e+003,8.586964e+001
2.169525e+003,8.577905e+001
2.171453e+003,8.572865e+001
2.173382e+003,8.569482e+001
2.175310e+003,8.565226e+001
2.177239e+003,8.558579e+001
2.179167e+003,8.549387e+001
2.181096e+003,8.538636e+001
2.183024e+003,8.527647e+001
2.184953e+003,8.517288e+001
2.186881e+003,8.507572e+001
2.188810e+003,8.497794e+001
2.190738e+003,8.486983e+001
2.192667e+003,8.474487e+001
2.194595e+003,8.460352e+001
2.196523e+003,8.445238e+001
2.198452e+003,8.430167e+001
2.200380e+003,8.416125e+001
2.202309e+003,8.403919e+001
2.204237e+003,8.393989e+001
2.206166e+003,8.386514e+001
2.208094e+003,8.381451e+001
2.210023e+003,8.378541e+001
2.211951e+003,8.377254e+001
2.213880e+003,8.376700e+001
2.215808e+003,8.375807e+001
2.217737e+003,8.373493e+001
2.219665e+003,8.369012e+001
2.221594e+003,8.362247e+001
2.223522e+003,8.353753e+001
2.225450e+003,8.344483e+001
2.227379e+003,8.335377e+001
2.229307e+003,8.327058e+001
2.231236e+003,8.319620e+001
2.233164e+003,8.312713e+001
2.235093e+003,8.305826e+001
2.237021e+003,8.298635e+001
2.238950e+003,8.291132e+001
2.240878e+003,8.283600e+001
2.242807e+003,8.276391e+001
2.244735e+003,8.269686e+001
2.246664e+003,8.263374e+001
2.248592e+003,8.257136e+001
2.250521e+003,8.250606e+001
2.252449e+003,8.243631e+001
2.254377e+003,8.236382e+001
2.256306e+003,8.229275e+001
2.258234e+003,8.222720e+001
2.260163e+003,8.216938e+001
2.262091e+003,8.211821e+001
2.264020e+003,8.207021e+001
2.265948e+003,8.202131e+001
2.267877e+003,8.196916e+001
2.269805e+003,8.191434e+001
2.271734e+003,8.185964e+001
2.273662e+003,8.180826e+001
2.275591e+003,8.176123e+001
2.277519e+003,8.171671e+001
2.279448e+003,8.167037e+001
2.281376e+003,8.161765e+001
2.283304e+003,8.155560e+001
2.285233e+003,8.148464e+001
2.287161e+003,8.140846e+001
2.289090e+003,8.133282e+001
2.291018e+003,8.126319e+001
2.292947e+003,8.120350e+001
2.294875e+003,8.115506e+001
2.296804e+003,8.111668e+001
2.298732e+003,8.108543e+001
2.300661e+003,8.105782e+001
2.302589e+003,8.103073e+001
2.304518e+003,8.100188e+001
2.306446e+003,8.096990e+001
2.308375e+003,8.093446e+001
2.310303e+003,8.089609e+001
2.312231e+003,8.085627e+001
2.314160e+003,8.081734e+001
2.316088e+003,8.078230e+001
2.318017e+003,8.075383e+001
2.319945e+003,8.073367e+001
2.321874e+003,8.072203e+001
2.323802e+003,8.071724e+001
2.325731e+003,8.071655e+001
2.327659e+003,8.071702e+001
2.329588e+003,8.071683e+001
2.331516e+003,8.071594e+001
2.333445e+003,8.071625e+001
2.335373e+003,8.072079e+001
2.337302e+003,8.073267e+001
2.339230e+003,8.075330e+001
2.341158e+003,8.078217e+001
2.343087e+003,8.081729e+001
2.345015e+003,8.085642e+001
2.346944e+003,8.089804e+001
2.348872e+003,8.094139e+001
2.350801e+003,8.098679e+001
2.352729e+003,8.103453e+001
2.354658e+003,8.108446e+001
2.356586e+003,8.113524e+001
2.358515e+003,8.118434e+001
2.360443e+003,8.122876e+001
2.362372e+003,8.126646e+001
2.364300e+003,8.129750e+001
2.366229e+003,8.132377e+001
2.368157e+003,8.134842e+001
2.370085e+003,8.137470e+001
2.372014e+003,8.140510e+001
2.373942e+003,8.144135e+001
2.375871e+003,8.148438e+001
2.377799e+003,8.153424e+001
2.379728e+003,8.159023e+001
2.381656e+003,8.165088e+001
2.383585e+003,8.171441e+001
2.385513e+003,8.177877e+001
2.387442e+003,8.184263e+001
2.389370e+003,8.190552e+001
2.391299e+003,8.196819e+001
2.393227e+003,8.203219e+001
2.395156e+003,8.209910e+001
2.397084e+003,8.216956e+001
2.399012e+003,8.224276e+001
2.400941e+003,8.231641e+001
2.402869e+003,8.238764e+001
2.404798e+003,8.245438e+001
2.406726e+003,8.251609e+001
2.408655e+003,8.257407e+001
2.410583e+003,8.263068e+001
2.412512e+003,8.268825e+001
2.414440e+003,8.274788e+001
2.416369e+003,8.280907e+001
2.418297e+003,8.286997e+001
2.420226e+003,8.292860e+001
2.422154e+003,8.298368e+001
2.424083e+003,8.303516e+001
2.426011e+003,8.308385e+001
2.427939e+003,8.313087e+001
2.429868e+003,8.317680e+001
2.431796e+003,8.322140e+001
2.433725e+003,8.326397e+001
2.435653e+003,8.330423e+001
2.437582e+003,8.334254e+001
2.439510e+003,8.338006e+001
2.441439e+003,8.341793e+001
2.443367e+003,8.345645e+001
2.445296e+003,8.349449e+001
2.447224e+003,8.352980e+001
2.449153e+003,8.355987e+001
2.451081e+003,8.358323e+001
2.453010e+003,8.360040e+001
2.454938e+003,8.361371e+001
2.456866e+003,8.362661e+001
2.458795e+003,8.364206e+001
2.460723e+003,8.366169e+001
2.462652e+003,8.368523e+001
2.464580e+003,8.371124e+001
2.466509e+003,8.373785e+001
2.468437e+003,8.376418e+001
2.470366e+003,8.379054e+001
2.472294e+003,8.381837e+001
2.474223e+003,8.384907e+001
2.476151e+003,8.388325e+001
2.478080e+003,8.391994e+001
2.480008e+003,8.395690e+001
2.481937e+003,8.399088e+001
2.483865e+003,8.401860e+001
2.485793e+003,8.403763e+001
2.487722e+003,8.404643e+001
2.489650e+003,8.404474e+001
2.491579e+003,8.403336e+001
2.493507e+003,8.401450e+001
2.495436e+003,8.399149e+001
2.497364e+003,8.396857e+001
2.499293e+003,8.395031e+001
2.501221e+003,8.394014e+001
2.503150e+003,8.393943e+001
2.505078e+003,8.394687e+001
2.507007e+003,8.395880e+001
2.508935e+003,8.397001e+001
2.510864e+003,8.397568e+001
2.512792e+003,8.397287e+001
2.514720e+003,8.396113e+001
2.516649e+003,8.394196e+001
2.518577e+003,8.391798e+001
2.520506e+003,8.389149e+001
2.522434e+003,8.386364e+001
2.524363e+003,8.383458e+001
2.526291e+003,8.380408e+001
2.528220e+003,8.377237e+001
2.530148e+003,8.374055e+001
2.532077e+003,8.371030e+001
2.534005e+003,8.368298e+001
2.535934e+003,8.365902e+001
2.537862e+003,8.363750e+001
2.539791e+003,8.361675e+001
2.541719e+003,8.359516e+001
2.543647e+003,8.357217e+001
2.545576e+003,8.354851e+001
2.547504e+003,8.352568e+001
2.549433e+003,8.350479e+001
2.551361e+003,8.348553e+001
2.553290e+003,8.346574e+001
2.555218e+003,8.344228e+001
2.557147e+003,8.341199e+001
2.559075e+003,8.337329e+001
2.561004e+003,8.332684e+001
2.562932e+003,8.327539e+001
2.564861e+003,8.322242e+001
2.566789e+003,8.317086e+001
2.568718e+003,8.312219e+001
2.570646e+003,8.307610e+001
2.572574e+003,8.303130e+001
2.574503e+003,8.298615e+001
2.576431e+003,8.293970e+001
2.578360e+003,8.289153e+001
2.580288e+003,8.284156e+001
2.582217e+003,8.278934e+001
2.584145e+003,8.273383e+001
2.586074e+003,8.267363e+001
2.588002e+003,8.260789e+001
2.589931e+003,8.253682e+001
2.591859e+003,8.246219e+001
2.593788e+003,8.238667e+001
2.595716e+003,8.231328e+001
2.597645e+003,8.224394e+001
2.599573e+003,8.217903e+001
2.601501e+003,8.211732e+001
2.603430e+003,8.205696e+001
2.605358e+003,8.199612e+001
2.607287e+003,8.193394e+001
2.609215e+003,8.187061e+001
2.611144e+003,8.180695e+001
2.613072e+003,8.174364e+001
2.615001e+003,8.168060e+001
2.616929e+003,8.161676e+001
2.618858e+003,8.155048e+001
2.620786e+003,8.148018e+001
2.622715e+003,8.140493e+001
2.624643e+003,8.132478e+001
2.626572e+003,8.124069e+001
2.628500e+003,8.115427e+001
2.630428e+003,8.106698e+001
2.632357e+003,8.098023e+001
2.634285e+003,8.089507e+001
2.636214e+003,8.081216e+001
2.638142e+003,8.073198e+001
2.640071e+003,8.065469e+001
2.641999e+003,8.058002e+001
2.643928e+003,8.050726e+001
2.645856e+003,8.043546e+001
2.647785e+003,8.036362e+001
2.649713e+003,8.029127e+001
2.651642e+003,8.021868e+001
2.653570e+003,8.014702e+001
2.655499e+003,8.007819e+001
2.657427e+003,8.001408e+001
2.659355e+003,7.995616e+001
2.661284e+003,7.990492e+001
2.663212e+003,7.985983e+001
2.665141e+003,7.981937e+001
2.667069e+003,7.978158e+001
2.668998e+003,7.974460e+001
2.670926e+003,7.970699e+001
2.672855e+003,7.966800e+001
2.674783e+003,7.962743e+001
2.676712e+003,7.958559e+001
2.678640e+003,7.954301e+001
2.680569e+003,7.950040e+001
2.682497e+003,7.945851e+001
2.684426e+003,7.941805e+001
2.686354e+003,7.937959e+001
2.688282e+003,7.934343e+001
2.690211e+003,7.930931e+001
2.692139e+003,7.927651e+001
2.694068e+003,7.924400e+001
2.695996e+003,7.921075e+001
2.697925e+003,7.917617e+001
2.699853e+003,7.914024e+001
2.701782e+003,7.910371e+001
2.703710e+003,7.906767e+001
2.705639e+003,7.903320e+001
2.707567e+003,7.900101e+001
2.709496e+003,7.897133e+001
2.711424e+003,7.894389e+001
2.713353e+003,7.891817e+001
2.715281e+003,7.889377e+001
2.717209e+003,7.887054e+001
2.719138e+003,7.884855e+001
2.721066e+003,7.882794e+001
2.722995e+003,7.880880e+001
2.724923e+003,7.879091e+001
2.726852e+003,7.877399e+001
2.728780e+003,7.875779e+001
2.730709e+003,7.874218e+001
2.732637e+003,7.872733e+001
2.734566e+003,7.871354e+001
2.736494e+003,7.870116e+001
2.738423e+003,7.869027e+001
2.740351e+003,7.868076e+001
2.742280e+003,7.867226e+001
2.744208e+003,7.866433e+001
2.746136e+003,7.865652e+001
2.748065e+003,7.864851e+001
2.749993e+003,7.864002e+001
2.751922e+003,7.863074e+001
2.753850e+003,7.862047e+001
2.755779e+003,7.860896e+001
2.757707e+003,7.859631e+001
2.759636e+003,7.858291e+001
2.761564e+003,7.856948e+001
2.763493e+003,7.855697e+001
2.765421e+003,7.854614e+001
2.767350e+003,7.853735e+001
2.769278e+003,7.853046e+001
2.771207e+003,7.852496e+001
2.773135e+003,7.852022e+001
2.775063e+003,7.851585e+001
2.776992e+003,7.851188e+001
2.778920e+003,7.850867e+001
2.780849e+003,7.850655e+001
2.782777e+003,7.850558e+001
2.784706e+003,7.850520e+001
2.786634e+003,7.850434e+001
2.788563e+003,7.850177e+001
2.790491e+003,7.849646e+001
2.792420e+003,7.848799e+001
2.794348e+003,7.847662e+001
2.796277e+003,7.846303e+001
2.798205e+003,7.844801e+001
2.800134e+003,7.843201e+001
2.802062e+003,7.841512e+001
2.803990e+003,7.839710e+001
2.805919e+003,7.837753e+001
2.807847e+003,7.835628e+001
2.809776e+003,7.833346e+001
2.811704e+003,7.830939e+001
2.813633e+003,7.828432e+001
2.815561e+003,7.825821e+001
2.817490e+003,7.823067e+001
2.819418e+003,7.820117e+001
2.821347e+003,7.816915e+001
2.823275e+003,7.813428e+001
2.825204e+003,7.809650e+001
2.827132e+003,7.805583e+001
2.829061e+003,7.801192e+001
2.830989e+003,7.796406e+001
2.832917e+003,7.791091e+001
2.834846e+003,7.785128e+001
2.836774e+003,7.778447e+001
2.838703e+003,7.771110e+001
2.840631e+003,7.763323e+001
2.842560e+003,7.755467e+001
2.844488e+003,7.748016e+001
2.846417e+003,7.741417e+001
2.848345e+003,7.736026e+001
2.850274e+003,7.732014e+001
2.852202e+003,7.729331e+001
2.854131e+003,7.727753e+001
2.856059e+003,7.726966e+001
2.857988e+003,7.726652e+001
2.859916e+003,7.726556e+001
2.861844e+003,7.726543e+001
2.863773e+003,7.726564e+001
2.865701e+003,7.726627e+001
2.867630e+003,7.726728e+001
2.869558e+003,7.726801e+001
2.871487e+003,7.726688e+001
2.873415e+003,7.726167e+001
2.875344e+003,7.724979e+001
2.877272e+003,7.722919e+001
2.879201e+003,7.719897e+001
2.881129e+003,7.715990e+001
2.883058e+003,7.711436e+001
2.884986e+003,7.706596e+001
2.886915e+003,7.701903e+001
2.888843e+003,7.697750e+001
2.890771e+003,7.694477e+001
2.892700e+003,7.692320e+001
2.894628e+003,7.691409e+001
2.896557e+003,7.691807e+001
2.898485e+003,7.693542e+001
2.900414e+003,7.696606e+001
2.902342e+003,7.700976e+001
2.904271e+003,7.706609e+001
2.906199e+003,7.713448e+001
2.908128e+003,7.721421e+001
2.910056e+003,7.730479e+001
2.911985e+003,7.740588e+001
2.913913e+003,7.751723e+001
2.915842e+003,7.763828e+001
2.917770e+003,7.776760e+001
2.919698e+003,7.790224e+001
2.921627e+003,7.803813e+001
2.923555e+003,7.817000e+001
2.925484e+003,7.829272e+001
2.927412e+003,7.840256e+001
2.929341e+003,7.849773e+001
2.931269e+003,7.857909e+001
2.933198e+003,7.864957e+001
2.935126e+003,7.871384e+001
2.937055e+003,7.877667e+001
2.938983e+003,7.884258e+001
2.940912e+003,7.891478e+001
2.942840e+003,7.899491e+001
2.944769e+003,7.908294e+001
2.946697e+003,7.917724e+001
2.948625e+003,7.927503e+001
2.950554e+003,7.937270e+001
2.952482e+003,7.946651e+001
2.954411e+003,7.955369e+001
2.956339e+003,7.963275e+001
2.958268e+003,7.970432e+001
2.960196e+003,7.977081e+001
2.962125e+003,7.983612e+001
2.964053e+003,7.990414e+001
2.965982e+003,7.997781e+001
2.967910e+003,8.005838e+001
2.969839e+003,8.014509e+001
2.971767e+003,8.023538e+001
2.973696e+003,8.032586e+001
2.975624e+003,8.041336e+001
2.977552e+003,8.049517e+001
2.979481e+003,8.056977e+001
2.981409e+003,8.063666e+001
2.983338e+003,8.069613e+001
2.985266e+003,8.074893e+001
2.987195e+003,8.079593e+001
2.989123e+003,8.083791e+001
2.991052e+003,8.087549e+001
2.992980e+003,8.090901e+001
2.994909e+003,8.093859e+001
2.996837e+003,8.096422e+001
2.998766e+003,8.098583e+001
3.000694e+003,8.100353e+001
3.002623e+003,8.101765e+001
3.004551e+003,8.102881e+001
3.006479e+003,8.103794e+001
3.008408e+003,8.104599e+001
3.010336e+003,8.105375e+001
3.012265e+003,8.106162e+001
3.014193e+003,8.106963e+001
3.016122e+003,8.107726e+001
3.018050e+003,8.108391e+001
3.019979e+003,8.108884e+001
3.021907e+003,8.109140e+001
3.023836e+003,8.109122e+001
3.025764e+003,8.108803e+001
3.027693e+003,8.108188e+001
3.029621e+003,8.107314e+001
3.031550e+003,8.106252e+001
3.033478e+003,8.105113e+001
3.035406e+003,8.104028e+001
3.037335e+003,8.103120e+001
3.039263e+003,8.102467e+001
3.041192e+003,8.102071e+001
3.043120e+003,8.101842e+001
3.045049e+003,8.101623e+001
3.046977e+003,8.101235e+001
3.048906e+003,8.100517e+001
3.050834e+003,8.099386e+001
3.052763e+003,8.097848e+001
3.054691e+003,8.095979e+001
3.056620e+003,8.093894e+001
3.058548e+003,8.091707e+001
3.060477e+003,8.089494e+001
3.062405e+003,8.087288e+001
3.064333e+003,8.085091e+001
3.066262e+003,8.082892e+001
3.068190e+003,8.080693e+001
3.070119e+003,8.078503e+001
3.072047e+003,8.076333e+001
3.073976e+003,8.074181e+001
3.075904e+003,8.072023e+001
3.077833e+003,8.069810e+001
3.079761e+003,8.067492e+001
3.081690e+003,8.065008e+001
3.083618e+003,8.062323e+001
3.085547e+003,8.059422e+001
3.087475e+003,8.056297e+001
3.089404e+003,8.052976e+001
3.091332e+003,8.049484e+001
3.093260e+003,8.045860e+001
3.095189e+003,8.042162e+001
3.097117e+003,8.038457e+001
3.099046e+003,8.034815e+001
3.100974e+003,8.031300e+001
3.102903e+003,8.027950e+001
3.104831e+003,8.024777e+001
3.106760e+003,8.021754e+001
3.108688e+003,8.018821e+001
3.110617e+003,8.015898e+001
3.112545e+003,8.012882e+001
3.114474e+003,8.009663e+001
3.116402e+003,8.006141e+001
3.118331e+003,8.002238e+001
3.120259e+003,7.997929e+001
3.122188e+003,7.993250e+001
3.124116e+003,7.988297e+001
3.126044e+003,7.983199e+001
3.127973e+003,7.978087e+001
3.129901e+003,7.973026e+001
3.131830e+003,7.968014e+001
3.133758e+003,7.962975e+001
3.135687e+003,7.957792e+001
3.137615e+003,7.952393e+001
3.139544e+003,7.946765e+001
3.141472e+003,7.940991e+001
3.143401e+003,7.935206e+001
3.145329e+003,7.929540e+001
3.147258e+003,7.924053e+001
3.149186e+003,7.918686e+001
3.151115e+003,7.913288e+001
3.153043e+003,7.907678e+001
3.154971e+003,7.901720e+001
3.156900e+003,7.895392e+001
3.158828e+003,7.888784e+001
3.160757e+003,7.882082e+001
3.162685e+003,7.875462e+001
3.164614e+003,7.869026e+001
3.166542e+003,7.862772e+001
3.168471e+003,7.856611e+001
3.170399e+003,7.850410e+001
3.172328e+003,7.844057e+001
3.174256e+003,7.837498e+001
3.176185e+003,7.830724e+001
3.178113e+003,7.823737e+001
3.180042e+003,7.816508e+001
3.181970e+003,7.808962e+001
3.183898e+003,7.801006e+001
3.185827e+003,7.792580e+001
3.187755e+003,7.783698e+001
3.189684e+003,7.774455e+001
3.191612e+003,7.765009e+001
3.193541e+003,7.755499e+001
3.195469e+003,7.746000e+001
3.197398e+003,7.736493e+001
3.199326e+003,7.726891e+001
3.201255e+003,7.717105e+001
3.203183e+003,7.707104e+001
3.205112e+003,7.696954e+001
3.207040e+003,7.686769e+001
3.208969e+003,7.676679e+001
3.210897e+003,7.666728e+001
3.212825e+003,7.656851e+001
3.214754e+003,7.646892e+001
3.216682e+003,7.636670e+001
3.218611e+003,7.626072e+001
3.220539e+003,7.615087e+001
3.222468e+003,7.603809e+001
3.224396e+003,7.592377e+001
3.226325e+003,7.580894e+001
3.228253e+003,7.569370e+001
3.230182e+003,7.557706e+001
3.232110e+003,7.545748e+001
3.234039e+003,7.533350e+001
3.235967e+003,7.520425e+001
3.237896e+003,7.506944e+001
3.239824e+003,7.492919e+001
3.241752e+003,7.478329e+001
3.243681e+003,7.463075e+001
3.245609e+003,7.447012e+001
3.247538e+003,7.429951e+001
3.249466e+003,7.411780e+001
3.251395e+003,7.392517e+001
3.253323e+003,7.372340e+001
3.255252e+003,7.351575e+001
3.257180e+003,7.330658e+001
3.259109e+003,7.310094e+001
3.261037e+003,7.290367e+001
3.262966e+003,7.271980e+001
3.264894e+003,7.255396e+001
3.266823e+003,7.240984e+001
3.268751e+003,7.229002e+001
3.270679e+003,7.219498e+001
3.272608e+003,7.212267e+001
3.274536e+003,7.206873e+001
3.276465e+003,7.202765e+001
3.278393e+003,7.199383e+001
3.280322e+003,7.196297e+001
3.282250e+003,7.193309e+001
3.284179e+003,7.190422e+001
3.286107e+003,7.187796e+001
3.288036e+003,7.185624e+001
3.289964e+003,7.184068e+001
3.291893e+003,7.183205e+001
3.293821e+003,7.183016e+001
3.295750e+003,7.183414e+001
3.297678e+003,7.184261e+001
3.299606e+003,7.185353e+001
3.301535e+003,7.186398e+001
3.303463e+003,7.187050e+001
3.305392e+003,7.186895e+001
3.307320e+003,7.185509e+001
3.309249e+003,7.182562e+001
3.311177e+003,7.177795e+001
3.313106e+003,7.171079e+001
3.315034e+003,7.162384e+001
3.316963e+003,7.151776e+001
3.318891e+003,7.139444e+001
3.320820e+003,7.125748e+001
3.322748e+003,7.111317e+001
3.324677e+003,7.097038e+001
3.326605e+003,7.084003e+001
3.328533e+003,7.073454e+001
3.330462e+003,7.066435e+001
3.332390e+003,7.063724e+001
3.334319e+003,7.065664e+001
3.336247e+003,7.072185e+001
3.338176e+003,7.082930e+001
3.340104e+003,7.097420e+001
3.342033e+003,7.115211e+001
3.343961e+003,7.135864e+001
3.345890e+003,7.158935e+001
3.347818e+003,7.183877e+001
3.349747e+003,7.209956e+001
3.351675e+003,7.236385e+001
3.353604e+003,7.262423e+001
3.355532e+003,7.287536e+001
3.357460e+003,7.311526e+001
3.359389e+003,7.334491e+001
3.361317e+003,7.356708e+001
3.363246e+003,7.378421e+001
3.365174e+003,7.399751e+001
3.367103e+003,7.420625e+001
3.369031e+003,7.440878e+001
3.370959e+003,7.460364e+001
3.372888e+003,7.479070e+001
3.374816e+003,7.497133e+001
3.376745e+003,7.514771e+001
3.378673e+003,7.532156e+001
3.380602e+003,7.549312e+001
3.382530e+003,7.566096e+001
3.384459e+003,7.582280e+001
3.386387e+003,7.597638e+001
3.388316e+003,7.612074e+001
3.390244e+003,7.625661e+001
3.392173e+003,7.638629e+001
3.394101e+003,7.651279e+001
3.396030e+003,7.663904e+001
3.397958e+003,7.676794e+001
3.399886e+003,7.690215e+001
3.401815e+003,7.704439e+001
3.403743e+003,7.719752e+001
3.405672e+003,7.736382e+001
3.407600e+003,7.754447e+001
3.409529e+003,7.773851e+001
3.411457e+003,7.794321e+001
3.413386e+003,7.815431e+001
3.415314e+003,7.836747e+001
3.417243e+003,7.857973e+001
3.419171e+003,7.878979e+001
3.421100e+003,7.899786e+001
3.423028e+003,7.920472e+001
3.424957e+003,7.941050e+001
3.426885e+003,7.961413e+001
3.428813e+003,7.981355e+001
3.430742e+003,8.000665e+001
3.432670e+003,8.019222e+001
3.434599e+003,8.037054e+001
3.436527e+003,8.054327e+001
3.438456e+003,8.071263e+001
3.440384e+003,8.088049e+001
3.442313e+003,8.104768e+001
3.444241e+003,8.121396e+001
3.446170e+003,8.137859e+001
3.448098e+003,8.154106e+001
3.450027e+003,8.170155e+001
3.451955e+003,8.186098e+001
3.453884e+003,8.202052e+001
3.455812e+003,8.218113e+001
3.457740e+003,8.234337e+001
3.459669e+003,8.250732e+001
3.461597e+003,8.267288e+001
3.463526e+003,8.283980e+001
3.465454e+003,8.300755e+001
3.467383e+003,8.317505e+001
3.469311e+003,8.334017e+001
3.471240e+003,8.350022e+001
3.473168e+003,8.365238e+001
3.475097e+003,8.379507e+001
3.477025e+003,8.392863e+001
3.478954e+003,8.405583e+001
3.480882e+003,8.418091e+001
3.482811e+003,8.430828e+001
3.484739e+003,8.444121e+001
3.486667e+003,8.458055e+001
3.488596e+003,8.472507e+001
3.490524e+003,8.487237e+001
3.492453e+003,8.502032e+001
3.494381e+003,8.516766e+001
3.496310e+003,8.531424e+001
3.498238e+003,8.546040e+001
3.500167e+003,8.560587e+001
3.502095e+003,8.574948e+001
3.504024e+003,8.588930e+001
3.505952e+003,8.602364e+001
3.507881e+003,8.615205e+001
3.509809e+003,8.627574e+001
3.511738e+003,8.639713e+001
3.513666e+003,8.651861e+001
3.515594e+003,8.664153e+001
3.517523e+003,8.676540e+001
3.519451e+003,8.688844e+001
3.521380e+003,8.700851e+001
3.523308e+003,8.712461e+001
3.525237e+003,8.723746e+001
3.527165e+003,8.734956e+001
3.529094e+003,8.746361e+001
3.531022e+003,8.758135e+001
3.532951e+003,8.770280e+001
3.534879e+003,8.782653e+001
3.536808e+003,8.795080e+001
3.538736e+003,8.807470e+001
3.540665e+003,8.819895e+001
3.542593e+003,8.832552e+001
3.544521e+003,8.845619e+001
3.546450e+003,8.859116e+001
3.548378e+003,8.872810e+001
3.550307e+003,8.886293e+001
3.552235e+003,8.899170e+001
3.554164e+003,8.911195e+001
3.556092e+003,8.922450e+001
3.558021e+003,8.933308e+001
3.559949e+003,8.944369e+001
3.561878e+003,8.956186e+001
3.563806e+003,8.969102e+001
3.565735e+003,8.983107e+001
3.567663e+003,8.997894e+001
3.569592e+003,9.013058e+001
3.571520e+003,9.028317e+001
3.573448e+003,9.043614e+001
3.575377e+003,9.059068e+001
3.577305e+003,9.074877e+001
3.579234e+003,9.091187e+001
3.581162e+003,9.108008e+001
3.583091e+003,9.125231e+001
3.585019e+003,9.142661e+001
3.586948e+003,9.160122e+001
3.588876e+003,9.177510e+001
3.590805e+003,9.194788e+001
3.592733e+003,9.211953e+001
3.594662e+003,9.228986e+001
3.596590e+003,9.245863e+001
3.598519e+003,9.262591e+001
3.600447e+003,9.279263e+001
3.602375e+003,9.296040e+001
3.604304e+003,9.313116e+001
3.606232e+003,9.330614e+001
3.608161e+003,9.348508e+001
3.610089e+003,9.366624e+001
3.612018e+003,9.384745e+001
3.613946e+003,9.402827e+001
3.615875e+003,9.421094e+001
3.617803e+003,9.440109e+001
3.619732e+003,9.460567e+001
3.621660e+003,9.482991e+001
3.623589e+003,9.507459e+001
3.625517e+003,9.533392e+001
3.627446e+003,9.559707e+001
3.629374e+003,9.585133e+001
3.631302e+003,9.608759e+001
3.633231e+003,9.630341e+001
3.635159e+003,9.650265e+001
3.637088e+003,9.669355e+001
3.639016e+003,9.688586e+001
3.640945e+003,9.708848e+001
3.642873e+003,9.730711e+001
3.644802e+003,9.754204e+001
3.646730e+003,9.778675e+001
3.648659e+003,9.802934e+001
3.650587e+003,9.825705e+001
3.652516e+003,9.846125e+001
3.654444e+003,9.864005e+001
3.656373e+003,9.879677e+001
3.658301e+003,9.893742e+001
3.660229e+003,9.906849e+001
3.662158e+003,9.919611e+001
3.664086e+003,9.932525e+001
3.666015e+003,9.945913e+001
3.667943e+003,9.959787e+001
3.669872e+003,9.973798e+001
3.671800e+003,9.987326e+001
3.673729e+003,9.999770e+001
3.675657e+003,1.001082e+002
3.677586e+003,1.002054e+002
3.679514e+003,1.002927e+002
3.681443e+003,1.003733e+002
3.683371e+003,1.004496e+002
3.685300e+003,1.005216e+002
3.687228e+003,1.005879e+002
3.689156e+003,1.006467e+002
3.691085e+003,1.006975e+002
3.693013e+003,1.007417e+002
3.694942e+003,1.007821e+002
3.696870e+003,1.008214e+002
3.698799e+003,1.008618e+002
3.700727e+003,1.009030e+002
3.702656e+003,1.009430e+002
3.704584e+003,1.009785e+002
3.706513e+003,1.010061e+002
3.708441e+003,1.010241e+002
3.710370e+003,1.010334e+002
3.712298e+003,1.010370e+002
3.714227e+003,1.010391e+002
3.716155e+003,1.010435e+002
3.718083e+003,1.010527e+002
3.720012e+003,1.010685e+002
3.721940e+003,1.010915e+002
3.723869e+003,1.011223e+002
3.725797e+003,1.011607e+002
3.727726e+003,1.012054e+002
3.729654e+003,1.012541e+002
3.731583e+003,1.013029e+002
3.733511e+003,1.013475e+002
3.735440e+003,1.013843e+002
3.737368e+003,1.014109e+002
3.739297e+003,1.014271e+002
3.741225e+003,1.014349e+002
3.743154e+003,1.014371e+002
3.745082e+003,1.014366e+002
3.747010e+003,1.014354e+002
3.748939e+003,1.014343e+002
3.750867e+003,1.014333e+002
3.752796e+003,1.014320e+002
3.754724e+003,1.014305e+002
3.756653e+003,1.014292e+002
3.758581e+003,1.014288e+002
3.760510e+003,1.014302e+002
3.762438e+003,1.014338e+002
3.764367e+003,1.014397e+002
3.766295e+003,1.014480e+002
3.768224e+003,1.014583e+002
3.770152e+003,1.014704e+002
3.772081e+003,1.014841e+002
3.774009e+003,1.014994e+002
3.775938e+003,1.015162e+002
3.777866e+003,1.015344e+002
3.779794e+003,1.015538e+002
3.781723e+003,1.015739e+002
3.783651e+003,1.015943e+002
3.785580e+003,1.016140e+002
3.787508e+003,1.016325e+002
3.789437e+003,1.016488e+002
3.791365e+003,1.016626e+002
3.793294e+003,1.016734e+002
3.795222e+003,1.016818e+002
3.797151e+003,1.016886e+002
3.799079e+003,1.016950e+002
3.801008e+003,1.017018e+002
3.802936e+003,1.017094e+002
3.804865e+003,1.017169e+002
3.806793e+003,1.017233e+002
3.808721e+003,1.017276e+002
3.810650e+003,1.017298e+002
3.812578e+003,1.017309e+002
3.814507e+003,1.017327e+002
3.816435e+003,1.017367e+002
3.818364e+003,1.017438e+002
3.820292e+003,1.017526e+002
3.822221e+003,1.017605e+002
3.824149e+003,1.017638e+002
3.826078e+003,1.017602e+002
3.828006e+003,1.017488e+002
3.829935e+003,1.017311e+002
3.831863e+003,1.017105e+002
3.833792e+003,1.016920e+002
3.835720e+003,1.016799e+002
3.837648e+003,1.016761e+002
3.839577e+003,1.016799e+002
3.841505e+003,1.016886e+002
3.843434e+003,1.016989e+002
3.845362e+003,1.017082e+002
3.847291e+003,1.017152e+002
3.849219e+003,1.017200e+002
3.851148e+003,1.017233e+002
3.853076e+003,1.017260e+002
3.855005e+003,1.017285e+002
3.856933e+003,1.017307e+002
3.858862e+003,1.017322e+002
3.860790e+003,1.017325e+002
3.862719e+003,1.017318e+002
3.864647e+003,1.017304e+002
3.866575e+003,1.017291e+002
3.868504e+003,1.017286e+002
3.870432e+003,1.017294e+002
3.872361e+003,1.017316e+002
3.874289e+003,1.017352e+002
3.876218e+003,1.017400e+002
3.878146e+003,1.017457e+002
3.880075e+003,1.017518e+002
3.882003e+003,1.017580e+002
3.883932e+003,1.017639e+002
3.885860e+003,1.017689e+002
3.887789e+003,1.017729e+002
3.889717e+003,1.017757e+002
3.891646e+003,1.017776e+002
3.893574e+003,1.017784e+002
3.895502e+003,1.017782e+002
3.897431e+003,1.017764e+002
3.899359e+003,1.017729e+002
3.901288e+003,1.017677e+002
3.903216e+003,1.017616e+002
3.905145e+003,1.017557e+002
3.907073e+003,1.017512e+002
3.909002e+003,1.017493e+002
3.910930e+003,1.017506e+002
3.912859e+003,1.017549e+002
3.914787e+003,1.017615e+002
3.916716e+003,1.017692e+002
3.918644e+003,1.017766e+002
3.920573e+003,1.017821e+002
3.922501e+003,1.017855e+002
3.924429e+003,1.017865e+002
3.926358e+003,1.017858e+002
3.928286e+003,1.017844e+002
3.930215e+003,1.017834e+002
3.932143e+003,1.017838e+002
3.934072e+003,1.017864e+002
3.936000e+003,1.017915e+002
3.937929e+003,1.017986e+002
3.939857e+003,1.018069e+002
3.941786e+003,1.018145e+002
3.943714e+003,1.018195e+002
3.945643e+003,1.018201e+002
3.947571e+003,1.018157e+002
3.949500e+003,1.018068e+002
3.951428e+003,1.017954e+002
3.953356e+003,1.017845e+002
3.955285e+003,1.017770e+002
3.957213e+003,1.017752e+002
3.959142e+003,1.017800e+002
3.961070e+003,1.017908e+002
3.962999e+003,1.018055e+002
3.964927e+003,1.018213e+002
3.966856e+003,1.018349e+002
3.968784e+003,1.018438e+002
3.970713e+003,1.018466e+002
3.972641e+003,1.018433e+002
3.974570e+003,1.018354e+002
3.976498e+003,1.018253e+002
3.978427e+003,1.018159e+002
3.980355e+003,1.018100e+002
3.982283e+003,1.018094e+002
3.984212e+003,1.018145e+002
3.986140e+003,1.018241e+002
3.988069e+003,1.018360e+002
3.989997e+003,1.018475e+002
3.991926e+003,1.018559e+002
3.993854e+003,1.018598e+002
3.995783e+003,1.018586e+002
3.997711e+003,1.018530e+002
3.999640e+003,1.018440e+002
4.001568e+003,0.000000e+000
