3.991926e+002,6.839609e+001
4.011211e+002,6.813788e+001
4.030496e+002,6.798255e+001
4.049780e+002,6.786879e+001
4.069065e+002,6.773993e+001
4.088350e+002,6.755561e+001
4.107634e+002,6.729982e+001
4.126919e+002,6.697163e+001
4.146204e+002,6.657893e+001
4.165488e+002,6.613025e+001
4.184773e+002,6.563197e+001
4.204058e+002,6.509016e+001
4.223342e+002,6.451579e+001
4.242627e+002,6.392630e+001
4.261912e+002,6.334399e+001
4.281196e+002,6.278952e+001
4.300481e+002,6.227971e+001
4.319766e+002,6.182423e+001
4.339050e+002,6.142533e+001
4.358335e+002,6.108279e+001
4.377620e+002,6.079649e+001
4.396904e+002,6.056870e+001
4.416189e+002,6.040471e+001
4.435474e+002,6.030841e+001
4.454758e+002,6.027833e+001
4.474043e+002,6.030397e+001
4.493328e+002,6.036660e+001
4.512612e+002,6.044127e+001
4.531897e+002,6.050204e+001
4.551182e+002,6.052903e+001
4.570466e+002,6.050858e+001
4.589751e+002,6.043397e+001
4.609036e+002,6.030127e+001
4.628320e+002,6.010538e+001
4.647605e+002,5.984045e+001
4.666890e+002,5.950302e+001
4.686174e+002,5.909681e+001
4.705459e+002,5.863634e+001
4.724744e+002,5.814610e+001
4.744028e+002,5.765588e+001
4.763313e+002,5.718972e+001
4.782598e+002,5.676075e+001
4.801882e+002,5.636746e+001
4.821167e+002,5.599716e+001
4.840452e+002,5.563070e+001
4.859736e+002,5.525005e+001
4.879021e+002,5.484266e+001
4.898306e+002,5.440017e+001
4.917590e+002,5.391718e+001
4.936875e+002,5.338843e+001
4.956160e+002,5.280779e+001
4.975444e+002,5.217113e+001
4.994729e+002,5.148041e+001
5.014014e+002,5.074833e+001
5.033298e+002,4.999807e+001
5.052583e+002,4.926353e+001
5.071868e+002,4.858351e+001
5.091152e+002,4.799323e+001
5.110437e+002,4.752536e+001
5.129722e+002,4.720570e+001
5.149006e+002,4.705296e+001
5.168291e+002,4.708062e+001
5.187576e+002,4.729198e+001
5.206860e+002,4.767650e+001
5.226145e+002,4.820476e+001
5.245430e+002,4.883138e+001
5.264714e+002,4.949786e+001
5.283999e+002,5.014125e+001
5.303284e+002,5.070992e+001
5.322568e+002,5.116444e+001
5.341853e+002,5.148301e+001
5.361138e+002,5.166000e+001
5.380422e+002,5.169998e+001
5.399707e+002,5.161440e+001
5.418992e+002,5.141872e+001
5.438276e+002,5.113452e+001
5.457561e+002,5.078959e+001
5.476846e+002,5.041964e+001
5.496130e+002,5.006942e+001
5.515415e+002,4.978319e+001
5.534700e+002,4.960118e+001
5.553984e+002,4.955120e+001
5.573269e+002,4.964178e+001
5.592554e+002,4.986259e+001
5.611838e+002,5.018635e+001
5.631123e+002,5.057696e+001
5.650408e+002,5.099200e+001
5.669692e+002,5.139195e+001
5.688977e+002,5.174554e+001
5.708262e+002,5.202999e+001
5.727546e+002,5.223550e+001
5.746831e+002,5.236375e+001
5.766116e+002,5.242628e+001
5.785400e+002,5.243985e+001
5.804685e+002,5.242338e+001
5.823970e+002,5.239413e+001
5.843254e+002,5.236400e+001
5.862539e+002,5.234056e+001
5.881824e+002,5.232711e+001
5.901108e+002,5.232462e+001
5.920393e+002,5.233315e+001
5.939678e+002,5.235239e+001
5.958962e+002,5.238144e+001
5.978247e+002,5.241810e+001
5.997532e+002,5.245950e+001
6.016816e+002,5.250359e+001
6.036101e+002,5.255168e+001
6.055386e+002,5.261007e+001
6.074670e+002,5.269097e+001
6.093955e+002,5.281038e+001
6.113240e+002,5.298227e+001
6.132524e+002,5.321545e+001
6.151809e+002,5.350879e+001
6.171094e+002,5.385158e+001
6.190378e+002,5.422572e+001
6.209663e+002,5.461209e+001
6.228948e+002,5.499586e+001
6.248232e+002,5.536854e+001
6.267517e+002,5.572895e+001
6.286802e+002,5.608012e+001
6.306086e+002,5.642603e+001
6.325371e+002,5.676866e+001
6.344656e+002,5.710698e+001
6.363940e+002,5.743712e+001
6.383225e+002,5.775369e+001
6.402510e+002,5.804942e+001
6.421794e+002,5.831535e+001
6.441079e+002,5.854083e+001
6.460364e+002,5.871295e+001
6.479648e+002,5.882055e+001
6.498933e+002,5.885816e+001
6.518218e+002,5.883073e+001
6.537502e+002,5.875542e+001
6.556787e+002,5.866175e+001
6.576072e+002,5.858921e+001
6.595356e+002,5.857768e+001
6.614641e+002,5.866548e+001
6.633926e+002,5.888060e+001
6.653210e+002,5.923380e+001
6.672495e+002,5.971616e+001
6.691780e+002,6.030002e+001
6.711064e+002,6.094771e+001
6.730349e+002,6.161863e+001
6.749634e+002,6.228028e+001
6.768918e+002,6.291043e+001
6.788203e+002,6.349420e+001
6.807488e+002,6.402323e+001
6.826772e+002,6.449179e+001
6.846057e+002,6.489681e+001
6.865342e+002,6.523935e+001
6.884626e+002,6.552548e+001
6.903911e+002,6.576659e+001
6.923196e+002,6.597678e+001
6.942480e+002,6.617227e+001
6.961765e+002,6.636814e+001
6.981050e+002,6.657713e+001
7.000334e+002,6.681092e+001
7.019619e+002,6.707909e+001
7.038904e+002,6.738996e+001
7.058188e+002,6.775068e+001
7.077473e+002,6.816620e+001
7.096758e+002,6.863908e+001
7.116042e+002,6.916875e+001
7.135327e+002,6.975151e+001
7.154612e+002,7.037994e+001
7.173896e+002,7.104337e+001
7.193181e+002,7.172932e+001
7.212466e+002,7.242301e+001
7.231750e+002,7.310985e+001
7.251035e+002,7.377690e+001
7.270320e+002,7.441288e+001
7.289604e+002,7.501027e+001
7.308889e+002,7.556527e+001
7.328174e+002,7.607782e+001
7.347458e+002,7.655104e+001
7.366743e+002,7.699042e+001
7.386028e+002,7.740253e+001
7.405313e+002,7.779351e+001
7.424597e+002,7.816899e+001
7.443882e+002,7.853355e+001
7.463167e+002,7.889083e+001
7.482451e+002,7.924414e+001
7.501736e+002,7.959620e+001
7.521021e+002,7.994872e+001
7.540305e+002,8.030222e+001
7.559590e+002,8.065582e+001
7.578875e+002,8.100724e+001
7.598159e+002,8.135374e+001
7.617444e+002,8.169305e+001
7.636729e+002,8.202386e+001
7.656013e+002,8.234611e+001
7.675298e+002,8.266055e+001
7.694582e+002,8.296793e+001
7.713867e+002,8.326833e+001
7.733151e+002,8.356112e+001
7.752436e+002,8.384493e+001
7.771721e+002,8.411833e+001
7.791005e+002,8.438061e+001
7.810290e+002,8.463175e+001
7.829575e+002,8.487249e+001
7.848859e+002,8.510388e+001
7.868144e+002,8.532706e+001
7.887429e+002,8.554306e+001
7.906713e+002,8.575321e+001
7.925998e+002,8.595930e+001
7.945283e+002,8.616365e+001
7.964567e+002,8.636894e+001
7.983852e+002,8.657719e+001
8.003137e+002,8.678905e+001
8.022421e+002,8.700350e+001
8.041706e+002,8.721800e+001
8.060991e+002,8.742914e+001
8.080275e+002,8.763362e+001
8.099560e+002,8.782880e+001
8.118845e+002,8.801273e+001
8.138129e+002,8.818357e+001
8.157414e+002,8.833921e+001
8.176699e+002,8.847673e+001
8.195983e+002,8.859252e+001
8.215268e+002,8.868273e+001
8.234553e+002,8.874299e+001
8.253837e+002,8.876827e+001
8.273122e+002,8.875191e+001
8.292407e+002,8.868248e+001
8.311691e+002,8.854300e+001
8.330976e+002,8.830881e+001
8.350261e+002,8.794496e+001
8.369545e+002,8.741119e+001
8.388830e+002,8.666145e+001
8.408115e+002,8.564956e+001
8.427399e+002,8.434092e+001
8.446684e+002,8.271826e+001
8.465969e+002,8.079503e+001
8.485253e+002,7.862051e+001
8.504538e+002,7.629030e+001
8.523823e+002,7.393651e+001
8.543107e+002,7.170833e+001
8.562392e+002,6.976243e+001
8.581677e+002,6.821760e+001
8.600961e+002,6.713522e+001
8.620246e+002,6.650288e+001
8.639531e+002,6.623790e+001
8.658815e+002,6.620074e+001
8.678100e+002,6.622639e+001
8.697385e+002,6.617622e+001
8.716669e+002,6.595698e+001
8.735954e+002,6.555372e+001
8.755239e+002,6.502845e+001
8.774523e+002,6.451273e+001
8.793808e+002,6.417021e+001
8.813093e+002,6.415717e+001
8.832377e+002,6.460165e+001
8.851662e+002,6.556482e+001
8.870947e+002,6.703779e+001
8.890231e+002,6.894331e+001
8.909516e+002,7.116261e+001
8.928801e+002,7.354999e+001
8.948085e+002,7.595930e+001
8.967370e+002,7.827373e+001
8.986655e+002,8.040161e+001
9.005939e+002,8.228792e+001
9.025224e+002,8.391112e+001
9.044509e+002,8.527351e+001
9.063793e+002,8.639481e+001
9.083078e+002,8.730318e+001
9.102363e+002,8.803107e+001
9.121647e+002,8.860742e+001
9.140932e+002,8.905707e+001
9.160217e+002,8.940010e+001
9.179501e+002,8.965044e+001
9.198786e+002,8.981888e+001
9.218071e+002,8.991408e+001
9.237355e+002,8.994344e+001
9.256640e+002,8.991479e+001
9.275925e+002,8.983587e+001
9.295209e+002,8.971333e+001
9.314494e+002,8.955244e+001
9.333779e+002,8.935568e+001
9.353063e+002,8.912293e+001
9.372348e+002,8.885222e+001
9.391633e+002,8.854146e+001
9.410917e+002,8.818974e+001
9.430202e+002,8.779821e+001
9.449487e+002,8.736966e+001
9.468771e+002,8.690749e+001
9.488056e+002,8.641376e+001
9.507341e+002,8.588819e+001
9.526625e+002,8.532751e+001
9.545910e+002,8.472637e+001
9.565195e+002,8.407825e+001
9.584479e+002,8.337498e+001
9.603764e+002,8.260682e+001
9.623049e+002,8.176093e+001
9.642333e+002,8.081982e+001
9.661618e+002,7.976487e+001
9.680903e+002,7.857956e+001
9.700187e+002,7.725752e+001
9.719472e+002,7.580953e+001
9.738757e+002,7.426921e+001
9.758041e+002,7.269176e+001
9.777326e+002,7.114037e+001
9.796611e+002,6.967953e+001
9.815895e+002,6.835374e+001
9.835180e+002,6.717690e+001
9.854465e+002,6.613013e+001
9.873749e+002,6.516910e+001
9.893034e+002,6.423764e+001
9.912319e+002,6.328080e+001
9.931603e+002,6.226186e+001
9.950888e+002,6.116303e+001
9.970173e+002,5.998236e+001
9.989457e+002,5.872334e+001
1.000874e+003,5.738371e+001
1.002803e+003,5.594753e+001
1.004731e+003,5.438613e+001
1.006660e+003,5.266188e+001
1.008588e+003,5.074138e+001
1.010517e+003,4.860696e+001
1.012445e+003,4.626571e+001
1.014373e+003,4.375275e+001
1.016302e+003,4.113099e+001
1.018230e+003,3.849066e+001
1.020159e+003,3.593189e+001
1.022087e+003,3.356499e+001
1.024016e+003,3.149858e+001
1.025944e+003,2.982142e+001
1.027873e+003,2.860263e+001
1.029801e+003,2.787824e+001
1.031730e+003,2.764860e+001
1.033658e+003,2.787844e+001
1.035587e+003,2.850434e+001
1.037515e+003,2.944711e+001
1.039444e+003,3.061737e+001
1.041372e+003,3.193868e+001
1.043301e+003,3.335350e+001
1.045229e+003,3.482892e+001
1.047157e+003,3.635879e+001
1.049086e+003,3.795469e+001
1.051014e+003,3.963469e+001
1.052943e+003,4.140885e+001
1.054871e+003,4.326795e+001
1.056800e+003,4.517521e+001
1.058728e+003,4.706898e+001
1.060657e+003,4.886017e+001
1.062585e+003,5.045032e+001
1.064514e+003,5.174586e+001
1.066442e+003,5.266799e+001
1.068371e+003,5.317589e+001
1.070299e+003,5.327404e+001
1.072228e+003,5.302084e+001
1.074156e+003,5.251744e+001
1.076084e+003,5.190686e+001
1.078013e+003,5.135415e+001
1.079941e+003,5.101274e+001
1.081870e+003,5.102280e+001
1.083798e+003,5.148083e+001
1.085727e+003,5.242819e+001
1.087655e+003,5.385126e+001
1.089584e+003,5.568402e+001
1.091512e+003,5.782227e+001
1.093441e+003,6.013207e+001
1.095369e+003,6.248280e+001
1.097298e+003,6.475545e+001
1.099226e+003,6.685865e+001
1.101155e+003,6.874509e+001
1.103083e+003,7.040752e+001
1.105011e+003,7.187656e+001
1.106940e+003,7.320393e+001
1.108868e+003,7.445218e+001
1.110797e+003,7.567446e+001
1.112725e+003,7.690322e+001
1.114654e+003,7.814911e+001
1.116582e+003,7.940157e+001
1.118511e+003,8.063777e+001
1.120439e+003,8.182972e+001
1.122368e+003,8.295404e+001
1.124296e+003,8.399229e+001
1.126225e+003,8.493021e+001
1.128153e+003,8.575624e+001
1.130082e+003,8.645708e+001
1.132010e+003,8.701835e+001
1.133938e+003,8.742789e+001
1.135867e+003,8.767772e+001
1.137795e+003,8.776865e+001
1.139724e+003,8.771057e+001
1.141652e+003,8.752247e+001
1.143581e+003,8.722813e+001
1.145509e+003,8.685407e+001
1.147438e+003,8.642989e+001
1.149366e+003,8.598553e+001
1.151295e+003,8.555630e+001
1.153223e+003,8.518433e+001
1.155151e+003,8.491319e+001
1.157080e+003,8.478904e+001
1.159008e+003,8.484978e+001
1.160937e+003,8.511528e+001
1.162865e+003,8.558255e+001
1.164794e+003,8.622188e+001
1.166722e+003,8.698240e+001
1.168651e+003,8.779545e+001
1.170579e+003,8.859261e+001
1.172508e+003,8.931300e+001
1.174436e+003,8.990932e+001
1.176365e+003,9.035595e+001
1.178293e+003,9.064418e+001
1.180222e+003,9.077965e+001
1.182150e+003,9.077567e+001
1.184078e+003,9.064981e+001
1.186007e+003,9.042004e+001
1.187935e+003,9.010363e+001
1.189864e+003,8.972063e+001
1.191792e+003,8.929430e+001
1.193721e+003,8.885228e+001
1.195649e+003,8.842915e+001
1.197578e+003,8.806018e+001
1.199506e+003,8.777973e+001
1.201435e+003,8.761677e+001
1.203363e+003,8.758781e+001
1.205292e+003,8.769573e+001
1.207220e+003,8.792751e+001
1.209149e+003,8.825771e+001
1.211077e+003,8.864945e+001
1.213005e+003,8.906191e+001
1.214934e+003,8.945802e+001
1.216862e+003,8.980552e+001
1.218791e+003,9.008360e+001
1.220719e+003,9.028269e+001
1.222648e+003,9.040259e+001
1.224576e+003,9.044988e+001
1.226505e+003,9.043455e+001
1.228433e+003,9.036746e+001
1.230362e+003,9.025744e+001
1.232290e+003,9.011185e+001
1.234219e+003,8.993694e+001
1.236147e+003,8.973833e+001
1.238076e+003,8.952334e+001
1.240004e+003,8.930079e+001
1.241932e+003,8.908051e+001
1.243861e+003,8.887354e+001
1.245789e+003,8.868974e+001
1.247718e+003,8.853715e+001
1.249646e+003,8.842150e+001
1.251575e+003,8.834543e+001
1.253503e+003,8.830874e+001
1.255432e+003,8.830818e+001
1.257360e+003,8.833794e+001
1.259289e+003,8.838924e+001
1.261217e+003,8.845129e+001
1.263146e+003,8.851334e+001
1.265074e+003,8.856535e+001
1.267003e+003,8.860062e+001
1.268931e+003,8.861693e+001
1.270859e+003,8.861665e+001
1.272788e+003,8.860583e+001
1.274716e+003,8.859259e+001
1.276645e+003,8.858540e+001
1.278573e+003,8.858990e+001
1.280502e+003,8.860760e+001
1.282430e+003,8.863411e+001
1.284359e+003,8.866009e+001
1.286287e+003,8.867084e+001
1.288216e+003,8.864874e+001
1.290144e+003,8.857615e+001
1.292073e+003,8.843501e+001
1.294001e+003,8.820988e+001
1.295930e+003,8.788914e+001
1.297858e+003,8.746560e+001
1.299786e+003,8.693935e+001
1.301715e+003,8.631948e+001
1.303643e+003,8.562721e+001
1.305572e+003,8.489348e+001
1.307500e+003,8.416010e+001
1.309429e+003,8.347495e+001
1.311357e+003,8.288074e+001
1.313286e+003,8.241175e+001
1.315214e+003,8.208332e+001
1.317143e+003,8.188925e+001
1.319071e+003,8.180262e+001
1.321000e+003,8.178451e+001
1.322928e+003,8.179536e+001
1.324857e+003,8.180244e+001
1.326785e+003,8.179047e+001
1.328714e+003,8.176233e+001
1.330642e+003,8.173732e+001
1.332570e+003,8.174232e+001
1.334499e+003,8.180503e+001
1.336427e+003,8.194320e+001
1.338356e+003,8.215742e+001
1.340284e+003,8.242926e+001
1.342213e+003,8.272518e+001
1.344141e+003,8.300707e+001
1.346070e+003,8.323755e+001
1.347998e+003,8.339018e+001
1.349927e+003,8.345171e+001
1.351855e+003,8.342162e+001
1.353784e+003,8.331063e+001
1.355712e+003,8.313877e+001
1.357641e+003,8.293362e+001
1.359569e+003,8.272427e+001
1.361497e+003,8.254093e+001
1.363426e+003,8.241052e+001
1.365354e+003,8.235236e+001
1.367283e+003,8.237878e+001
1.369211e+003,8.249283e+001
1.371140e+003,8.268880e+001
1.373068e+003,8.295206e+001
1.374997e+003,8.326180e+001
1.376925e+003,8.359352e+001
1.378854e+003,8.392055e+001
1.380782e+003,8.422020e+001
1.382711e+003,8.447420e+001
1.384639e+003,8.467010e+001
1.386568e+003,8.480250e+001
1.388496e+003,8.487148e+001
1.390424e+003,8.488240e+001
1.392353e+003,8.484392e+001
1.394281e+003,8.476814e+001
1.396210e+003,8.466827e+001
1.398138e+003,8.455639e+001
1.400067e+003,8.444269e+001
1.401995e+003,8.433302e+001
1.403924e+003,8.422876e+001
1.405852e+003,8.412695e+001
1.407781e+003,8.402168e+001
1.409709e+003,8.390545e+001
1.411638e+003,8.377132e+001
1.413566e+003,8.361608e+001
1.415495e+003,8.344321e+001
1.417423e+003,8.326498e+001
1.419351e+003,8.310069e+001
1.421280e+003,8.297462e+001
1.423208e+003,8.290891e+001
1.425137e+003,8.291868e+001
1.427065e+003,8.301112e+001
1.428994e+003,8.318405e+001
1.430922e+003,8.342645e+001
1.432851e+003,8.371725e+001
1.434779e+003,8.402894e+001
1.436708e+003,8.432903e+001
1.438636e+003,8.458711e+001
1.440565e+003,8.478343e+001
1.442493e+003,8.490982e+001
1.444422e+003,8.497093e+001
1.446350e+003,8.498110e+001
1.448278e+003,8.496465e+001
1.450207e+003,8.495390e+001
1.452135e+003,8.498650e+001
1.454064e+003,8.510251e+001
1.455992e+003,8.533044e+001
1.457921e+003,8.567989e+001
1.459849e+003,8.614079e+001
1.461778e+003,8.669236e+001
1.463706e+003,8.731288e+001
1.465635e+003,8.798502e+001
1.467563e+003,8.869574e+001
1.469492e+003,8.942862e+001
1.471420e+003,9.016136e+001
1.473349e+003,9.086877e+001
1.475277e+003,9.152805e+001
1.477205e+003,9.212856e+001
1.479134e+003,9.267443e+001
1.481062e+003,9.318127e+001
1.482991e+003,9.366838e+001
1.484919e+003,9.415148e+001
1.486848e+003,9.463663e+001
1.488776e+003,9.511837e+001
1.490705e+003,9.558144e+001
1.492633e+003,9.600748e+001
1.494562e+003,9.638377e+001
1.496490e+003,9.670643e+001
1.498419e+003,9.698071e+001
1.500347e+003,9.721626e+001
1.502276e+003,9.742367e+001
1.504204e+003,9.761020e+001
1.506132e+003,9.777908e+001
1.508061e+003,9.793138e+001
1.509989e+003,9.806745e+001
1.511918e+003,9.818932e+001
1.513846e+003,9.830067e+001
1.515775e+003,9.840572e+001
1.517703e+003,9.850791e+001
1.519632e+003,9.860884e+001
1.521560e+003,9.870811e+001
1.523489e+003,9.880392e+001
1.525417e+003,9.889445e+001
1.527346e+003,9.897879e+001
1.529274e+003,9.905700e+001
1.531203e+003,9.912985e+001
1.533131e+003,9.919836e+001
1.535059e+003,9.926331e+001
1.536988e+003,9.932507e+001
1.538916e+003,9.938374e+001
1.540845e+003,9.943903e+001
1.542773e+003,9.949038e+001
1.544702e+003,9.953696e+001
1.546630e+003,9.957808e+001
1.548559e+003,9.961331e+001
1.550487e+003,9.964285e+001
1.552416e+003,9.966840e+001
1.554344e+003,9.969309e+001
1.556273e+003,9.972141e+001
1.558201e+003,9.975704e+001
1.560130e+003,9.980080e+001
1.562058e+003,9.985033e+001
1.563986e+003,9.990144e+001
1.565915e+003,9.995023e+001
1.567843e+003,9.999442e+001
1.569772e+003,1.000337e+002
1.571700e+003,1.000694e+002
1.573629e+003,1.001030e+002
1.575557e+003,1.001354e+002
1.577486e+003,1.001660e+002
1.579414e+003,1.001927e+002
1.581343e+003,1.002129e+002
1.583271e+003,1.002242e+002
1.585200e+003,1.002257e+002
1.587128e+003,1.002179e+002
1.589057e+003,1.002027e+002
1.590985e+003,1.001824e+002
1.592913e+003,1.001589e+002
1.594842e+003,1.001337e+002
1.596770e+003,1.001071e+002
1.598699e+003,1.000789e+002
1.600627e+003,1.000493e+002
1.602556e+003,1.000186e+002
1.604484e+003,9.998760e+001
1.606413e+003,9.995647e+001
1.608341e+003,9.992477e+001
1.610270e+003,9.989132e+001
1.612198e+003,9.985482e+001
1.614127e+003,9.981489e+001
1.616055e+003,9.977274e+001
1.617984e+003,9.973103e+001
1.619912e+003,9.969298e+001
1.621840e+003,9.966069e+001
1.623769e+003,9.963429e+001
1.625697e+003,9.961214e+001
1.627626e+003,9.959184e+001
1.629554e+003,9.957200e+001
1.631483e+003,9.955257e+001
1.633411e+003,9.953498e+001
1.635340e+003,9.952098e+001
1.637268e+003,9.951130e+001
1.639197e+003,9.950495e+001
1.641125e+003,9.949960e+001
1.643054e+003,9.949300e+001
1.644982e+003,9.948483e+001
1.646911e+003,9.947776e+001
1.648839e+003,9.947732e+001
1.650767e+003,9.948896e+001
1.652696e+003,9.951519e+001
1.654624e+003,9.955343e+001
1.656553e+003,9.959808e+001
1.658481e+003,9.964330e+001
1.660410e+003,9.968586e+001
1.662338e+003,9.972569e+001
1.664267e+003,9.976484e+001
1.666195e+003,9.980644e+001
1.668124e+003,9.985302e+001
1.670052e+003,9.990536e+001
1.671981e+003,9.996236e+001
1.673909e+003,1.000219e+002
1.675838e+003,1.000824e+002
1.677766e+003,1.001433e+002
1.679694e+003,1.002051e+002
1.681623e+003,1.002682e+002
1.683551e+003,1.003315e+002
1.685480e+003,1.003921e+002
1.687408e+003,1.004460e+002
1.689337e+003,1.004894e+002
1.691265e+003,1.005199e+002
1.693194e+003,1.005375e+002
1.695122e+003,1.005451e+002
1.697051e+003,1.005477e+002
1.698979e+003,1.005513e+002
1.700908e+003,1.005603e+002
1.702836e+003,1.005753e+002
1.704765e+003,1.005943e+002
1.706693e+003,1.006135e+002
1.708621e+003,1.006300e+002
1.710550e+003,1.006426e+002
1.712478e+003,1.006524e+002
1.714407e+003,1.006611e+002
1.716335e+003,1.006709e+002
1.718264e+003,1.006828e+002
1.720192e+003,1.006958e+002
1.722121e+003,1.007075e+002
1.724049e+003,1.007149e+002
1.725978e+003,1.007158e+002
1.727906e+003,1.007094e+002
1.729835e+003,1.006966e+002
1.731763e+003,1.006803e+002
1.733692e+003,1.006655e+002
1.735620e+003,1.006578e+002
1.737548e+003,1.006621e+002
1.739477e+003,1.006820e+002
1.741405e+003,1.007197e+002
1.743334e+003,1.007758e+002
1.745262e+003,1.008498e+002
1.747191e+003,1.009392e+002
1.749119e+003,1.010387e+002
1.751048e+003,1.011415e+002
1.752976e+003,1.012402e+002
1.754905e+003,1.013287e+002
1.756833e+003,1.014031e+002
1.758762e+003,1.014624e+002
1.760690e+003,1.015074e+002
1.762619e+003,1.015404e+002
1.764547e+003,1.015643e+002
1.766475e+003,1.015830e+002
1.768404e+003,1.016004e+002
1.770332e+003,1.016202e+002
1.772261e+003,1.016448e+002
1.774189e+003,1.016750e+002
1.776118e+003,1.017095e+002
1.778046e+003,1.017453e+002
1.779975e+003,1.017795e+002
1.781903e+003,1.018091e+002
1.783832e+003,1.018325e+002
1.785760e+003,1.018497e+002
1.787689e+003,1.018620e+002
1.789617e+003,1.018715e+002
1.791546e+003,1.018805e+002
1.793474e+003,1.018907e+002
1.795402e+003,1.019022e+002
1.797331e+003,1.019140e+002
1.799259e+003,1.019246e+002
1.801188e+003,1.019328e+002
1.803116e+003,1.019384e+002
1.805045e+003,1.019425e+002
1.806973e+003,1.019471e+002
1.808902e+003,1.019544e+002
1.810830e+003,1.019660e+002
1.812759e+003,1.019824e+002
1.814687e+003,1.020025e+002
1.816616e+003,1.020241e+002
1.818544e+003,1.020445e+002
1.820473e+003,1.020611e+002
1.822401e+003,1.020724e+002
1.824329e+003,1.020787e+002
1.826258e+003,1.020815e+002
1.828186e+003,1.020833e+002
1.830115e+003,1.020864e+002
1.832043e+003,1.020921e+002
1.833972e+003,1.021004e+002
1.835900e+003,1.021104e+002
1.837829e+003,1.021206e+002
1.839757e+003,1.021302e+002
1.841686e+003,1.021388e+002
1.843614e+003,1.021468e+002
1.845543e+003,1.021552e+002
1.847471e+003,1.021646e+002
1.849400e+003,1.021749e+002
1.851328e+003,1.021851e+002
1.853256e+003,1.021938e+002
1.855185e+003,1.021991e+002
1.857113e+003,1.022001e+002
1.859042e+003,1.021965e+002
1.860970e+003,1.021890e+002
1.862899e+003,1.021793e+002
1.864827e+003,1.021698e+002
1.866756e+003,1.021625e+002
1.868684e+003,1.021591e+002
1.870613e+003,1.021606e+002
1.872541e+003,1.021674e+002
1.874470e+003,1.021789e+002
1.876398e+003,1.021945e+002
1.878327e+003,1.022128e+002
1.880255e+003,1.022321e+002
1.882183e+003,1.022505e+002
1.884112e+003,1.022657e+002
1.886040e+003,1.022758e+002
1.887969e+003,1.022801e+002
1.889897e+003,1.022793e+002
1.891826e+003,1.022757e+002
1.893754e+003,1.022725e+002
1.895683e+003,1.022729e+002
1.897611e+003,1.022790e+002
1.899540e+003,1.022910e+002
1.901468e+003,1.023073e+002
1.903396e+003,1.023244e+002
1.905325e+003,1.023382e+002
1.907253e+003,1.023445e+002
1.909182e+003,1.023404e+002
1.911110e+003,1.023246e+002
1.913039e+003,1.022978e+002
1.914967e+003,1.022630e+002
1.916896e+003,1.022248e+002
1.918824e+003,1.021891e+002
1.920753e+003,1.021611e+002
1.922681e+003,1.021449e+002
1.924610e+003,1.021426e+002
1.926538e+003,1.021537e+002
1.928467e+003,1.021757e+002
1.930395e+003,1.022048e+002
1.932323e+003,1.022366e+002
1.934252e+003,1.022669e+002
1.936180e+003,1.022929e+002
1.938109e+003,1.023131e+002
1.940037e+003,1.023283e+002
1.941966e+003,1.023405e+002
1.943894e+003,1.023533e+002
1.945823e+003,1.023709e+002
1.947751e+003,1.023972e+002
1.949680e+003,1.024351e+002
1.951608e+003,1.024855e+002
1.953537e+003,1.025468e+002
1.955465e+003,1.026150e+002
1.957394e+003,1.026840e+002
1.959322e+003,1.027477e+002
1.961250e+003,1.028012e+002
1.963179e+003,1.028436e+002
1.965107e+003,1.028773e+002
1.967036e+003,1.029066e+002
1.968964e+003,1.029333e+002
1.970893e+003,1.029544e+002
1.972821e+003,1.029607e+002
1.974750e+003,1.029414e+002
1.976678e+003,1.028895e+002
1.978607e+003,1.028073e+002
1.980535e+003,1.027074e+002
1.982464e+003,1.026096e+002
1.984392e+003,1.025332e+002
1.986321e+003,1.024927e+002
1.988249e+003,1.024935e+002
1.990177e+003,1.025316e+002
1.992106e+003,1.025951e+002
1.994034e+003,1.026688e+002
1.995963e+003,1.027392e+002
1.997891e+003,1.027974e+002
1.999820e+003,1.028403e+002
2.001748e+003,1.028689e+002
2.003677e+003,1.028859e+002
2.005605e+003,1.028931e+002
2.007534e+003,1.028905e+002
2.009462e+003,1.028783e+002
2.011391e+003,1.028584e+002
2.013319e+003,1.028360e+002
2.015248e+003,1.028190e+002
2.017176e+003,1.028150e+002
2.019104e+003,1.028289e+002
2.021033e+003,1.028600e+002
2.022961e+003,1.029024e+002
2.024890e+003,1.029466e+002
2.026818e+003,1.029833e+002
2.028747e+003,1.030064e+002
2.030675e+003,1.030142e+002
2.032604e+003,1.030076e+002
2.034532e+003,1.029878e+002
2.036461e+003,1.029553e+002
2.038389e+003,1.029095e+002
2.040318e+003,1.028507e+002
2.042246e+003,1.027819e+002
2.044175e+003,1.027091e+002
2.046103e+003,1.026410e+002
2.048031e+003,1.025850e+002
2.049960e+003,1.025457e+002
2.051888e+003,1.025237e+002
2.053817e+003,1.025152e+002
2.055745e+003,1.025143e+002
2.057674e+003,1.025144e+002
2.059602e+003,1.025111e+002
2.061531e+003,1.025019e+002
2.063459e+003,1.024874e+002
2.065388e+003,1.024698e+002
2.067316e+003,1.024523e+002
2.069245e+003,1.024380e+002
2.071173e+003,1.024294e+002
2.073102e+003,1.024287e+002
2.075030e+003,1.024370e+002
2.076958e+003,1.024542e+002
2.078887e+003,1.024782e+002
2.080815e+003,1.025053e+002
2.082744e+003,1.025296e+002
2.084672e+003,1.025444e+002
2.086601e+003,1.025441e+002
2.088529e+003,1.025253e+002
2.090458e+003,1.024883e+002
2.092386e+003,1.024371e+002
2.094315e+003,1.023789e+002
2.096243e+003,1.023221e+002
2.098172e+003,1.022736e+002
2.100100e+003,1.022387e+002
2.102029e+003,1.022187e+002
2.103957e+003,1.022131e+002
2.105885e+003,1.022191e+002
2.107814e+003,1.022340e+002
2.109742e+003,1.022548e+002
2.111671e+003,1.022784e+002
2.113599e+003,1.023019e+002
2.115528e+003,1.023224e+002
2.117456e+003,1.023375e+002
2.119385e+003,1.023459e+002
2.121313e+003,1.023481e+002
2.123242e+003,1.023463e+002
2.125170e+003,1.023436e+002
2.127099e+003,1.023436e+002
2.129027e+003,1.023488e+002
2.130956e+003,1.023601e+002
2.132884e+003,1.023771e+002
2.134813e+003,1.023995e+002
2.136741e+003,1.024281e+002
2.138669e+003,1.024665e+002
2.140598e+003,1.025201e+002
2.142526e+003,1.025949e+002
2.144455e+003,1.026935e+002
2.146383e+003,1.028126e+002
2.148312e+003,1.029411e+002
2.150240e+003,1.030606e+002
2.152169e+003,1.031496e+002
2.154097e+003,1.031874e+002
2.156026e+003,1.031624e+002
2.157954e+003,1.030786e+002
2.159883e+003,1.029559e+002
2.161811e+003,1.028224e+002
2.163740e+003,1.027047e+002
2.165668e+003,1.026201e+002
2.167596e+003,1.025735e+002
2.169525e+003,1.025603e+002
2.171453e+003,1.025707e+002
2.173382e+003,1.025933e+002
2.175310e+003,1.026167e+002
2.177239e+003,1.026335e+002
2.179167e+003,1.026408e+002
2.181096e+003,1.026398e+002
2.183024e+003,1.026349e+002
2.184953e+003,1.026307e+002
2.186881e+003,1.026301e+002
2.188810e+003,1.026327e+002
2.190738e+003,1.026345e+002
2.192667e+003,1.026304e+002
2.194595e+003,1.026163e+002
2.196523e+003,1.025910e+002
2.198452e+003,1.025577e+002
2.200380e+003,1.025223e+002
2.202309e+003,1.024922e+002
2.204237e+003,1.024731e+002
2.206166e+003,1.024667e+002
2.208094e+003,1.024710e+002
2.210023e+003,1.024812e+002
2.211951e+003,1.024924e+002
2.213880e+003,1.025015e+002
2.215808e+003,1.025085e+002
2.217737e+003,1.025159e+002
2.219665e+003,1.025261e+002
2.221594e+003,1.025400e+002
2.223522e+003,1.025551e+002
2.225450e+003,1.025658e+002
2.227379e+003,1.025658e+002
2.229307e+003,1.025504e+002
2.231236e+003,1.025182e+002
2.233164e+003,1.024724e+002
2.235093e+003,1.024194e+002
2.237021e+003,1.023664e+002
2.238950e+003,1.023188e+002
2.240878e+003,1.022788e+002
2.242807e+003,1.022454e+002
2.244735e+003,1.022155e+002
2.246664e+003,1.021856e+002
2.248592e+003,1.021543e+002
2.250521e+003,1.021219e+002
2.252449e+003,1.020911e+002
2.254377e+003,1.020654e+002
2.256306e+003,1.020473e+002
2.258234e+003,1.020378e+002
2.260163e+003,1.020360e+002
2.262091e+003,1.020393e+002
2.264020e+003,1.020450e+002
2.265948e+003,1.020506e+002
2.267877e+003,1.020548e+002
2.269805e+003,1.020573e+002
2.271734e+003,1.020585e+002
2.273662e+003,1.020589e+002
2.275591e+003,1.020592e+002
2.277519e+003,1.020594e+002
2.279448e+003,1.020598e+002
2.281376e+003,1.020604e+002
2.283304e+003,1.020613e+002
2.285233e+003,1.020624e+002
2.287161e+003,1.020637e+002
2.289090e+003,1.020646e+002
2.291018e+003,1.020646e+002
2.292947e+003,1.020630e+002
2.294875e+003,1.020591e+002
2.296804e+003,1.020529e+002
2.298732e+003,1.020447e+002
2.300661e+003,1.020351e+002
2.302589e+003,1.020249e+002
2.304518e+003,1.020146e+002
2.306446e+003,1.020045e+002
2.308375e+003,1.019941e+002
2.310303e+003,1.019829e+002
2.312231e+003,1.019702e+002
2.314160e+003,1.019559e+002
2.316088e+003,1.019408e+002
2.318017e+003,1.019264e+002
2.319945e+003,1.019146e+002
2.321874e+003,1.019073e+002
2.323802e+003,1.019055e+002
2.325731e+003,1.019095e+002
2.327659e+003,1.019180e+002
2.329588e+003,1.019291e+002
2.331516e+003,1.019402e+002
2.333445e+003,1.019484e+002
2.335373e+003,1.019520e+002
2.337302e+003,1.019503e+002
2.339230e+003,1.019438e+002
2.341158e+003,1.019344e+002
2.343087e+003,1.019242e+002
2.345015e+003,1.019150e+002
2.346944e+003,1.019079e+002
2.348872e+003,1.019035e+002
2.350801e+003,1.019012e+002
2.352729e+003,1.018999e+002
2.354658e+003,1.018976e+002
2.356586e+003,1.018919e+002
2.358515e+003,1.018810e+002
2.360443e+003,1.018639e+002
2.362372e+003,1.018423e+002
2.364300e+003,1.018197e+002
2.366229e+003,1.018007e+002
2.368157e+003,1.017892e+002
2.370085e+003,1.017876e+002
2.372014e+003,1.017958e+002
2.373942e+003,1.018122e+002
2.375871e+003,1.018337e+002
2.377799e+003,1.018571e+002
2.379728e+003,1.018795e+002
2.381656e+003,1.018983e+002
2.383585e+003,1.019119e+002
2.385513e+003,1.019194e+002
2.387442e+003,1.019202e+002
2.389370e+003,1.019146e+002
2.391299e+003,1.019033e+002
2.393227e+003,1.018876e+002
2.395156e+003,1.018693e+002
2.397084e+003,1.018504e+002
2.399012e+003,1.018329e+002
2.400941e+003,1.018183e+002
2.402869e+003,1.018069e+002
2.404798e+003,1.017980e+002
2.406726e+003,1.017899e+002
2.408655e+003,1.017800e+002
2.410583e+003,1.017658e+002
2.412512e+003,1.017451e+002
2.414440e+003,1.017170e+002
2.416369e+003,1.016815e+002
2.418297e+003,1.016406e+002
2.420226e+003,1.015970e+002
2.422154e+003,1.015540e+002
2.424083e+003,1.015155e+002
2.426011e+003,1.014841e+002
2.427939e+003,1.014617e+002
2.429868e+003,1.014487e+002
2.431796e+003,1.014439e+002
2.433725e+003,1.014447e+002
2.435653e+003,1.014479e+002
2.437582e+003,1.014501e+002
2.439510e+003,1.014487e+002
2.441439e+003,1.014420e+002
2.443367e+003,1.014297e+002
2.445296e+003,1.014124e+002
2.447224e+003,1.013909e+002
2.449153e+003,1.013666e+002
2.451081e+003,1.013404e+002
2.453010e+003,1.013132e+002
2.454938e+003,1.012861e+002
2.456866e+003,1.012604e+002
2.458795e+003,1.012371e+002
2.460723e+003,1.012171e+002
2.462652e+003,1.012006e+002
2.464580e+003,1.011865e+002
2.466509e+003,1.011731e+002
2.468437e+003,1.011585e+002
2.470366e+003,1.011415e+002
2.472294e+003,1.011222e+002
2.474223e+003,1.011019e+002
2.476151e+003,1.010830e+002
2.478080e+003,1.010676e+002
2.480008e+003,1.010566e+002
2.481937e+003,1.010490e+002
2.483865e+003,1.010421e+002
2.485793e+003,1.010327e+002
2.487722e+003,1.010181e+002
2.489650e+003,1.009974e+002
2.491579e+003,1.009719e+002
2.493507e+003,1.009449e+002
2.495436e+003,1.009199e+002
2.497364e+003,1.008998e+002
2.499293e+003,1.008857e+002
2.501221e+003,1.008772e+002
2.503150e+003,1.008723e+002
2.505078e+003,1.008689e+002
2.507007e+003,1.008655e+002
2.508935e+003,1.008617e+002
2.510864e+003,1.008577e+002
2.512792e+003,1.008540e+002
2.514720e+003,1.008508e+002
2.516649e+003,1.008476e+002
2.518577e+003,1.008432e+002
2.520506e+003,1.008368e+002
2.522434e+003,1.008277e+002
2.524363e+003,1.008162e+002
2.526291e+003,1.008031e+002
2.528220e+003,1.007896e+002
2.530148e+003,1.007768e+002
2.532077e+003,1.007654e+002
2.534005e+003,1.007558e+002
2.535934e+003,1.007482e+002
2.537862e+003,1.007429e+002
2.539791e+003,1.007403e+002
2.541719e+003,1.007409e+002
2.543647e+003,1.007447e+002
2.545576e+003,1.007511e+002
2.547504e+003,1.007589e+002
2.549433e+003,1.007661e+002
2.551361e+003,1.007711e+002
2.553290e+003,1.007725e+002
2.555218e+003,1.007698e+002
2.557147e+003,1.007637e+002
2.559075e+003,1.007551e+002
2.561004e+003,1.007456e+002
2.562932e+003,1.007360e+002
2.564861e+003,1.007271e+002
2.566789e+003,1.007187e+002
2.568718e+003,1.007101e+002
2.570646e+003,1.007004e+002
2.572574e+003,1.006888e+002
2.574503e+003,1.006746e+002
2.576431e+003,1.006577e+002
2.578360e+003,1.006381e+002
2.580288e+003,1.006166e+002
2.582217e+003,1.005939e+002
2.584145e+003,1.005711e+002
2.586074e+003,1.005489e+002
2.588002e+003,1.005276e+002
2.589931e+003,1.005072e+002
2.591859e+003,1.004871e+002
2.593788e+003,1.004666e+002
2.595716e+003,1.004448e+002
2.597645e+003,1.004208e+002
2.599573e+003,1.003941e+002
2.601501e+003,1.003642e+002
2.603430e+003,1.003308e+002
2.605358e+003,1.002934e+002
2.607287e+003,1.002519e+002
2.609215e+003,1.002062e+002
2.611144e+003,1.001571e+002
2.613072e+003,1.001059e+002
2.615001e+003,1.000544e+002
2.616929e+003,1.000048e+002
2.618858e+003,9.995930e+001
2.620786e+003,9.991906e+001
2.622715e+003,9.988440e+001
2.624643e+003,9.985437e+001
2.626572e+003,9.982737e+001
2.628500e+003,9.980127e+001
2.630428e+003,9.977443e+001
2.632357e+003,9.974592e+001
2.634285e+003,9.971568e+001
2.636214e+003,9.968461e+001
2.638142e+003,9.965391e+001
2.640071e+003,9.962481e+001
2.641999e+003,9.959803e+001
2.643928e+003,9.957366e+001
2.645856e+003,9.955122e+001
2.647785e+003,9.952988e+001
2.649713e+003,9.950880e+001
2.651642e+003,9.948755e+001
2.653570e+003,9.946610e+001
2.655499e+003,9.944489e+001
2.657427e+003,9.942440e+001
2.659355e+003,9.940514e+001
2.661284e+003,9.938715e+001
2.663212e+003,9.937006e+001
2.665141e+003,9.935306e+001
2.667069e+003,9.933517e+001
2.668998e+003,9.931554e+001
2.670926e+003,9.929359e+001
2.672855e+003,9.926922e+001
2.674783e+003,9.924263e+001
2.676712e+003,9.921424e+001
2.678640e+003,9.918430e+001
2.680569e+003,9.915276e+001
2.682497e+003,9.911921e+001
2.684426e+003,9.908292e+001
2.686354e+003,9.904310e+001
2.688282e+003,9.899900e+001
2.690211e+003,9.895023e+001
2.692139e+003,9.889680e+001
2.694068e+003,9.883917e+001
2.695996e+003,9.877814e+001
2.697925e+003,9.871477e+001
2.699853e+003,9.865024e+001
2.701782e+003,9.858560e+001
2.703710e+003,9.852193e+001
2.705639e+003,9.846001e+001
2.707567e+003,9.840046e+001
2.709496e+003,9.834374e+001
2.711424e+003,9.829044e+001
2.713353e+003,9.824103e+001
2.715281e+003,9.819618e+001
2.717209e+003,9.815651e+001
2.719138e+003,9.812249e+001
2.721066e+003,9.809409e+001
2.722995e+003,9.807078e+001
2.724923e+003,9.805132e+001
2.726852e+003,9.803411e+001
2.728780e+003,9.801734e+001
2.730709e+003,9.799941e+001
2.732637e+003,9.797913e+001
2.734566e+003,9.795595e+001
2.736494e+003,9.792981e+001
2.738423e+003,9.790097e+001
2.740351e+003,9.786989e+001
2.742280e+003,9.783689e+001
2.744208e+003,9.780241e+001
2.746136e+003,9.776664e+001
2.748065e+003,9.772973e+001
2.749993e+003,9.769164e+001
2.751922e+003,9.765199e+001
2.753850e+003,9.761008e+001
2.755779e+003,9.756498e+001
2.757707e+003,9.751556e+001
2.759636e+003,9.746103e+001
2.761564e+003,9.740095e+001
2.763493e+003,9.733553e+001
2.765421e+003,9.726537e+001
2.767350e+003,9.719141e+001
2.769278e+003,9.711440e+001
2.771207e+003,9.703480e+001
2.773135e+003,9.695271e+001
2.775063e+003,9.686804e+001
2.776992e+003,9.678075e+001
2.778920e+003,9.669083e+001
2.780849e+003,9.659857e+001
2.782777e+003,9.650401e+001
2.784706e+003,9.640695e+001
2.786634e+003,9.630663e+001
2.788563e+003,9.620173e+001
2.790491e+003,9.609080e+001
2.792420e+003,9.597256e+001
2.794348e+003,9.584626e+001
2.796277e+003,9.571165e+001
2.798205e+003,9.556896e+001
2.800134e+003,9.541833e+001
2.802062e+003,9.525974e+001
2.803990e+003,9.509279e+001
2.805919e+003,9.491689e+001
2.807847e+003,9.473178e+001
2.809776e+003,9.453763e+001
2.811704e+003,9.433522e+001
2.813633e+003,9.412550e+001
2.815561e+003,9.390928e+001
2.817490e+003,9.368665e+001
2.819418e+003,9.345676e+001
2.821347e+003,9.321799e+001
2.823275e+003,9.296845e+001
2.825204e+003,9.270642e+001
2.827132e+003,9.243062e+001
2.829061e+003,9.213998e+001
2.830989e+003,9.183348e+001
2.832917e+003,9.150948e+001
2.834846e+003,9.116592e+001
2.836774e+003,9.080047e+001
2.838703e+003,9.041153e+001
2.840631e+003,8.999892e+001
2.842560e+003,8.956476e+001
2.844488e+003,8.911327e+001
2.846417e+003,8.864981e+001
2.848345e+003,8.818011e+001
2.850274e+003,8.770879e+001
2.852202e+003,8.723875e+001
2.854131e+003,8.677166e+001
2.856059e+003,8.630898e+001
2.857988e+003,8.585332e+001
2.859916e+003,8.541020e+001
2.861844e+003,8.498772e+001
2.863773e+003,8.459687e+001
2.865701e+003,8.425057e+001
2.867630e+003,8.396074e+001
2.869558e+003,8.373804e+001
2.871487e+003,8.358963e+001
2.873415e+003,8.351794e+001
2.875344e+003,8.352067e+001
2.877272e+003,8.359080e+001
2.879201e+003,8.371804e+001
2.881129e+003,8.388882e+001
2.883058e+003,8.408916e+001
2.884986e+003,8.430523e+001
2.886915e+003,8.452371e+001
2.888843e+003,8.473381e+001
2.890771e+003,8.492619e+001
2.892700e+003,8.509347e+001
2.894628e+003,8.523050e+001
2.896557e+003,8.533366e+001
2.898485e+003,8.540107e+001
2.900414e+003,8.543230e+001
2.902342e+003,8.542815e+001
2.904271e+003,8.539023e+001
2.906199e+003,8.532075e+001
2.908128e+003,8.522259e+001
2.910056e+003,8.509903e+001
2.911985e+003,8.495432e+001
2.913913e+003,8.479407e+001
2.915842e+003,8.462476e+001
2.917770e+003,8.445407e+001
2.919698e+003,8.429002e+001
2.921627e+003,8.413956e+001
2.923555e+003,8.400837e+001
2.925484e+003,8.390025e+001
2.927412e+003,8.381725e+001
2.929341e+003,8.376074e+001
2.931269e+003,8.373222e+001
2.933198e+003,8.373412e+001
2.935126e+003,8.377053e+001
2.937055e+003,8.384667e+001
2.938983e+003,8.396859e+001
2.940912e+003,8.414284e+001
2.942840e+003,8.437494e+001
2.944769e+003,8.466934e+001
2.946697e+003,8.502842e+001
2.948625e+003,8.545201e+001
2.950554e+003,8.593702e+001
2.952482e+003,8.647747e+001
2.954411e+003,8.706566e+001
2.956339e+003,8.769207e+001
2.958268e+003,8.834726e+001
2.960196e+003,8.902236e+001
2.962125e+003,8.970879e+001
2.964053e+003,9.039855e+001
2.965982e+003,9.108330e+001
2.967910e+003,9.175363e+001
2.969839e+003,9.240017e+001
2.971767e+003,9.301306e+001
2.973696e+003,9.358350e+001
2.975624e+003,9.410508e+001
2.977552e+003,9.457357e+001
2.979481e+003,9.498772e+001
2.981409e+003,9.534863e+001
2.983338e+003,9.565929e+001
2.985266e+003,9.592367e+001
2.987195e+003,9.614605e+001
2.989123e+003,9.633104e+001
2.991052e+003,9.648282e+001
2.992980e+003,9.660561e+001
2.994909e+003,9.670364e+001
2.996837e+003,9.678078e+001
2.998766e+003,9.684069e+001
3.000694e+003,9.688643e+001
3.002623e+003,9.692010e+001
3.004551e+003,9.694299e+001
3.006479e+003,9.695555e+001
3.008408e+003,9.695766e+001
3.010336e+003,9.694902e+001
3.012265e+003,9.692946e+001
3.014193e+003,9.689921e+001
3.016122e+003,9.685902e+001
3.018050e+003,9.681020e+001
3.019979e+003,9.675443e+001
3.021907e+003,9.669362e+001
3.023836e+003,9.662946e+001
3.025764e+003,9.656327e+001
3.027693e+003,9.649564e+001
3.029621e+003,9.642629e+001
3.031550e+003,9.635427e+001
3.033478e+003,9.627808e+001
3.035406e+003,9.619637e+001
3.037335e+003,9.610814e+001
3.039263e+003,9.601301e+001
3.041192e+003,9.591132e+001
3.043120e+003,9.580392e+001
3.045049e+003,9.569174e+001
3.046977e+003,9.557571e+001
3.048906e+003,9.545662e+001
3.050834e+003,9.533506e+001
3.052763e+003,9.521175e+001
3.054691e+003,9.508743e+001
3.056620e+003,9.496278e+001
3.058548e+003,9.483826e+001
3.060477e+003,9.471375e+001
3.062405e+003,9.458845e+001
3.064333e+003,9.446101e+001
3.066262e+003,9.432999e+001
3.068190e+003,9.419427e+001
3.070119e+003,9.405341e+001
3.072047e+003,9.390771e+001
3.073976e+003,9.375793e+001
3.075904e+003,9.360483e+001
3.077833e+003,9.344871e+001
3.079761e+003,9.328915e+001
3.081690e+003,9.312527e+001
3.083618e+003,9.295609e+001
3.085547e+003,9.278101e+001
3.087475e+003,9.260013e+001
3.089404e+003,9.241416e+001
3.091332e+003,9.222419e+001
3.093260e+003,9.203095e+001
3.095189e+003,9.183462e+001
3.097117e+003,9.163449e+001
3.099046e+003,9.142945e+001
3.100974e+003,9.121820e+001
3.102903e+003,9.100001e+001
3.104831e+003,9.077507e+001
3.106760e+003,9.054460e+001
3.108688e+003,9.031071e+001
3.110617e+003,9.007552e+001
3.112545e+003,8.984104e+001
3.114474e+003,8.960822e+001
3.116402e+003,8.937670e+001
3.118331e+003,8.914483e+001
3.120259e+003,8.891014e+001
3.122188e+003,8.867005e+001
3.124116e+003,8.842255e+001
3.126044e+003,8.816698e+001
3.127973e+003,8.790414e+001
3.129901e+003,8.763580e+001
3.131830e+003,8.736392e+001
3.133758e+003,8.708985e+001
3.135687e+003,8.681341e+001
3.137615e+003,8.653313e+001
3.139544e+003,8.624658e+001
3.141472e+003,8.595172e+001
3.143401e+003,8.564783e+001
3.145329e+003,8.533608e+001
3.147258e+003,8.501932e+001
3.149186e+003,8.470103e+001
3.151115e+003,8.438447e+001
3.153043e+003,8.407121e+001
3.154971e+003,8.376115e+001
3.156900e+003,8.345270e+001
3.158828e+003,8.314371e+001
3.160757e+003,8.283227e+001
3.162685e+003,8.251714e+001
3.164614e+003,8.219787e+001
3.166542e+003,8.187438e+001
3.168471e+003,8.154659e+001
3.170399e+003,8.121442e+001
3.172328e+003,8.087803e+001
3.174256e+003,8.053808e+001
3.176185e+003,8.019590e+001
3.178113e+003,7.985323e+001
3.180042e+003,7.951141e+001
3.181970e+003,7.917073e+001
3.183898e+003,7.883007e+001
3.185827e+003,7.848748e+001
3.187755e+003,7.814079e+001
3.189684e+003,7.778908e+001
3.191612e+003,7.743308e+001
3.193541e+003,7.707532e+001
3.195469e+003,7.671889e+001
3.197398e+003,7.636639e+001
3.199326e+003,7.601891e+001
3.201255e+003,7.567555e+001
3.203183e+003,7.533405e+001
3.205112e+003,7.499168e+001
3.207040e+003,7.464659e+001
3.208969e+003,7.429804e+001
3.210897e+003,7.394662e+001
3.212825e+003,7.359367e+001
3.214754e+003,7.324084e+001
3.216682e+003,7.288984e+001
3.218611e+003,7.254226e+001
3.220539e+003,7.219981e+001
3.222468e+003,7.186411e+001
3.224396e+003,7.153618e+001
3.226325e+003,7.121584e+001
3.228253e+003,7.090149e+001
3.230182e+003,7.059005e+001
3.232110e+003,7.027794e+001
3.234039e+003,6.996233e+001
3.235967e+003,6.964191e+001
3.237896e+003,6.931712e+001
3.239824e+003,6.898960e+001
3.241752e+003,6.866108e+001
3.243681e+003,6.833233e+001
3.245609e+003,6.800300e+001
3.247538e+003,6.767204e+001
3.249466e+003,6.733906e+001
3.251395e+003,6.700511e+001
3.253323e+003,6.667335e+001
3.255252e+003,6.634795e+001
3.257180e+003,6.603346e+001
3.259109e+003,6.573338e+001
3.261037e+003,6.544970e+001
3.262966e+003,6.518353e+001
3.264894e+003,6.493582e+001
3.266823e+003,6.470810e+001
3.268751e+003,6.450259e+001
3.270679e+003,6.432111e+001
3.272608e+003,6.416399e+001
3.274536e+003,6.402908e+001
3.276465e+003,6.391235e+001
3.278393e+003,6.380872e+001
3.280322e+003,6.371412e+001
3.282250e+003,6.362695e+001
3.284179e+003,6.354832e+001
3.286107e+003,6.348122e+001
3.288036e+003,6.342863e+001
3.289964e+003,6.339226e+001
3.291893e+003,6.337167e+001
3.293821e+003,6.336464e+001
3.295750e+003,6.336799e+001
3.297678e+003,6.337895e+001
3.299606e+003,6.339527e+001
3.301535e+003,6.341484e+001
3.303463e+003,6.343528e+001
3.305392e+003,6.345309e+001
3.307320e+003,6.346416e+001
3.309249e+003,6.346482e+001
3.311177e+003,6.345284e+001
3.313106e+003,6.342854e+001
3.315034e+003,6.339452e+001
3.316963e+003,6.335531e+001
3.318891e+003,6.331580e+001
3.320820e+003,6.328036e+001
3.322748e+003,6.325296e+001
3.324677e+003,6.323711e+001
3.326605e+003,6.323670e+001
3.328533e+003,6.325642e+001
3.330462e+003,6.330090e+001
3.332390e+003,6.337416e+001
3.334319e+003,6.347870e+001
3.336247e+003,6.361506e+001
3.338176e+003,6.378234e+001
3.340104e+003,6.397918e+001
3.342033e+003,6.420454e+001
3.343961e+003,6.445753e+001
3.345890e+003,6.473673e+001
3.347818e+003,6.503916e+001
3.349747e+003,6.535912e+001
3.351675e+003,6.568916e+001
3.353604e+003,6.602119e+001
3.355532e+003,6.634827e+001
3.357460e+003,6.666664e+001
3.359389e+003,6.697591e+001
3.361317e+003,6.727814e+001
3.363246e+003,6.757603e+001
3.365174e+003,6.787155e+001
3.367103e+003,6.816500e+001
3.369031e+003,6.845549e+001
3.370959e+003,6.874200e+001
3.372888e+003,6.902450e+001
3.374816e+003,6.930431e+001
3.376745e+003,6.958353e+001
3.378673e+003,6.986367e+001
3.380602e+003,7.014502e+001
3.382530e+003,7.042622e+001
3.384459e+003,7.070521e+001
3.386387e+003,7.098038e+001
3.388316e+003,7.125172e+001
3.390244e+003,7.152087e+001
3.392173e+003,7.179071e+001
3.394101e+003,7.206413e+001
3.396030e+003,7.234294e+001
3.397958e+003,7.262801e+001
3.399886e+003,7.291987e+001
3.401815e+003,7.321937e+001
3.403743e+003,7.352843e+001
3.405672e+003,7.384948e+001
3.407600e+003,7.418431e+001
3.409529e+003,7.453278e+001
3.411457e+003,7.489234e+001
3.413386e+003,7.525822e+001
3.415314e+003,7.562502e+001
3.417243e+003,7.598883e+001
3.419171e+003,7.634785e+001
3.421100e+003,7.670284e+001
3.423028e+003,7.705570e+001
3.424957e+003,7.740822e+001
3.426885e+003,7.776090e+001
3.428813e+003,7.811284e+001
3.430742e+003,7.846267e+001
3.432670e+003,7.880981e+001
3.434599e+003,7.915511e+001
3.436527e+003,7.950072e+001
3.438456e+003,7.984885e+001
3.440384e+003,8.020067e+001
3.442313e+003,8.055540e+001
3.444241e+003,8.091068e+001
3.446170e+003,8.126357e+001
3.448098e+003,8.161222e+001
3.450027e+003,8.195660e+001
3.451955e+003,8.229851e+001
3.453884e+003,8.264027e+001
3.455812e+003,8.298357e+001
3.457740e+003,8.332851e+001
3.459669e+003,8.367377e+001
3.461597e+003,8.401722e+001
3.463526e+003,8.435714e+001
3.465454e+003,8.469311e+001
3.467383e+003,8.502594e+001
3.469311e+003,8.535703e+001
3.471240e+003,8.568759e+001
3.473168e+003,8.601821e+001
3.475097e+003,8.634896e+001
3.477025e+003,8.667986e+001
3.478954e+003,8.701151e+001
3.480882e+003,8.734504e+001
3.482811e+003,8.768138e+001
3.484739e+003,8.802050e+001
3.486667e+003,8.836069e+001
3.488596e+003,8.869871e+001
3.490524e+003,8.903053e+001
3.492453e+003,8.935317e+001
3.494381e+003,8.966527e+001
3.496310e+003,8.996771e+001
3.498238e+003,9.026285e+001
3.500167e+003,9.055375e+001
3.502095e+003,9.084263e+001
3.504024e+003,9.113030e+001
3.505952e+003,9.141660e+001
3.507881e+003,9.170094e+001
3.509809e+003,9.198293e+001
3.511738e+003,9.226266e+001
3.513666e+003,9.254045e+001
3.515594e+003,9.281600e+001
3.517523e+003,9.308820e+001
3.519451e+003,9.335548e+001
3.521380e+003,9.361649e+001
3.523308e+003,9.387120e+001
3.525237e+003,9.412132e+001
3.527165e+003,9.437006e+001
3.529094e+003,9.462057e+001
3.531022e+003,9.487449e+001
3.532951e+003,9.513106e+001
3.534879e+003,9.538741e+001
3.536808e+003,9.563929e+001
3.538736e+003,9.588251e+001
3.540665e+003,9.611457e+001
3.542593e+003,9.633475e+001
3.544521e+003,9.654395e+001
3.546450e+003,9.674359e+001
3.548378e+003,9.693474e+001
3.550307e+003,9.711784e+001
3.552235e+003,9.729284e+001
3.554164e+003,9.746059e+001
3.556092e+003,9.762344e+001
3.558021e+003,9.778557e+001
3.559949e+003,9.795236e+001
3.561878e+003,9.812846e+001
3.563806e+003,9.831583e+001
3.565735e+003,9.851228e+001
3.567663e+003,9.871210e+001
3.569592e+003,9.890794e+001
3.571520e+003,9.909316e+001
3.573448e+003,9.926402e+001
3.575377e+003,9.941934e+001
3.577305e+003,9.956042e+001
3.579234e+003,9.968977e+001
3.581162e+003,9.981065e+001
3.583091e+003,9.992603e+001
3.585019e+003,1.000385e+002
3.586948e+003,1.001498e+002
3.588876e+003,1.002608e+002
3.590805e+003,1.003711e+002
3.592733e+003,1.004796e+002
3.594662e+003,1.005847e+002
3.596590e+003,1.006846e+002
3.598519e+003,1.007784e+002
3.600447e+003,1.008662e+002
3.602375e+003,1.009495e+002
3.604304e+003,1.010307e+002
3.606232e+003,1.011126e+002
3.608161e+003,1.011974e+002
3.610089e+003,1.012856e+002
3.612018e+003,1.013758e+002
3.613946e+003,1.014651e+002
3.615875e+003,1.015506e+002
3.617803e+003,1.016299e+002
3.619732e+003,1.017028e+002
3.621660e+003,1.017702e+002
3.623589e+003,1.018340e+002
3.625517e+003,1.018957e+002
3.627446e+003,1.019556e+002
3.629374e+003,1.020122e+002
3.631302e+003,1.020631e+002
3.633231e+003,1.021055e+002
3.635159e+003,1.021376e+002
3.637088e+003,1.021591e+002
3.639016e+003,1.021718e+002
3.640945e+003,1.021795e+002
3.642873e+003,1.021881e+002
3.644802e+003,1.022048e+002
3.646730e+003,1.022356e+002
3.648659e+003,1.022829e+002
3.650587e+003,1.023430e+002
3.652516e+003,1.024082e+002
3.654444e+003,1.024697e+002
3.656373e+003,1.025203e+002
3.658301e+003,1.025560e+002
3.660229e+003,1.025757e+002
3.662158e+003,1.025804e+002
3.664086e+003,1.025732e+002
3.666015e+003,1.025589e+002
3.667943e+003,1.025443e+002
3.669872e+003,1.025359e+002
3.671800e+003,1.025383e+002
3.673729e+003,1.025524e+002
3.675657e+003,1.025756e+002
3.677586e+003,1.026031e+002
3.679514e+003,1.026304e+002
3.681443e+003,1.026545e+002
3.683371e+003,1.026742e+002
3.685300e+003,1.026899e+002
3.687228e+003,1.027030e+002
3.689156e+003,1.027152e+002
3.691085e+003,1.027274e+002
3.693013e+003,1.027398e+002
3.694942e+003,1.027515e+002
3.696870e+003,1.027615e+002
3.698799e+003,1.027691e+002
3.700727e+003,1.027745e+002
3.702656e+003,1.027792e+002
3.704584e+003,1.027853e+002
3.706513e+003,1.027950e+002
3.708441e+003,1.028093e+002
3.710370e+003,1.028273e+002
3.712298e+003,1.028458e+002
3.714227e+003,1.028612e+002
3.716155e+003,1.028696e+002
3.718083e+003,1.028692e+002
3.720012e+003,1.028598e+002
3.721940e+003,1.028427e+002
3.723869e+003,1.028204e+002
3.725797e+003,1.027952e+002
3.727726e+003,1.027688e+002
3.729654e+003,1.027414e+002
3.731583e+003,1.027120e+002
3.733511e+003,1.026790e+002
3.735440e+003,1.026418e+002
3.737368e+003,1.026015e+002
3.739297e+003,1.025614e+002
3.741225e+003,1.025269e+002
3.743154e+003,1.025040e+002
3.745082e+003,1.024977e+002
3.747010e+003,1.025098e+002
3.748939e+003,1.025384e+002
3.750867e+003,1.025785e+002
3.752796e+003,1.026236e+002
3.754724e+003,1.026677e+002
3.756653e+003,1.027070e+002
3.758581e+003,1.027393e+002
3.760510e+003,1.027640e+002
3.762438e+003,1.027821e+002
3.764367e+003,1.027952e+002
3.766295e+003,1.028053e+002
3.768224e+003,1.028140e+002
3.770152e+003,1.028227e+002
3.772081e+003,1.028317e+002
3.774009e+003,1.028405e+002
3.775938e+003,1.028486e+002
3.777866e+003,1.028553e+002
3.779794e+003,1.028606e+002
3.781723e+003,1.028646e+002
3.783651e+003,1.028677e+002
3.785580e+003,1.028697e+002
3.787508e+003,1.028697e+002
3.789437e+003,1.028666e+002
3.791365e+003,1.028588e+002
3.793294e+003,1.028457e+002
3.795222e+003,1.028284e+002
3.797151e+003,1.028101e+002
3.799079e+003,1.027949e+002
3.801008e+003,1.027867e+002
3.802936e+003,1.027872e+002
3.804865e+003,1.027946e+002
3.806793e+003,1.028054e+002
3.808721e+003,1.028152e+002
3.810650e+003,1.028215e+002
3.812578e+003,1.028234e+002
3.814507e+003,1.028228e+002
3.816435e+003,1.028226e+002
3.818364e+003,1.028261e+002
3.820292e+003,1.028341e+002
3.822221e+003,1.028449e+002
3.824149e+003,1.028553e+002
3.826078e+003,1.028619e+002
3.828006e+003,1.028629e+002
3.829935e+003,1.028590e+002
3.831863e+003,1.028527e+002
3.833792e+003,1.028484e+002
3.835720e+003,1.028493e+002
3.837648e+003,1.028565e+002
3.839577e+003,1.028679e+002
3.841505e+003,1.028797e+002
3.843434e+003,1.028880e+002
3.845362e+003,1.028898e+002
3.847291e+003,1.028840e+002
3.849219e+003,1.028715e+002
3.851148e+003,1.028548e+002
3.853076e+003,1.028368e+002
3.855005e+003,1.028201e+002
3.856933e+003,1.028069e+002
3.858862e+003,1.027987e+002
3.860790e+003,1.027973e+002
3.862719e+003,1.028047e+002
3.864647e+003,1.028223e+002
3.866575e+003,1.028496e+002
3.868504e+003,1.028837e+002
3.870432e+003,1.029192e+002
3.872361e+003,1.029494e+002
3.874289e+003,1.029692e+002
3.876218e+003,1.029759e+002
3.878146e+003,1.029706e+002
3.880075e+003,1.029566e+002
3.882003e+003,1.029394e+002
3.883932e+003,1.029233e+002
3.885860e+003,1.029106e+002
3.887789e+003,1.029009e+002
3.889717e+003,1.028918e+002
3.891646e+003,1.028806e+002
3.893574e+003,1.028663e+002
3.895502e+003,1.028498e+002
3.897431e+003,1.028344e+002
3.899359e+003,1.028247e+002
3.901288e+003,1.028232e+002
3.903216e+003,1.028303e+002
3.905145e+003,1.028429e+002
3.907073e+003,1.028571e+002
3.909002e+003,1.028687e+002
3.910930e+003,1.028756e+002
3.912859e+003,1.028777e+002
3.914787e+003,1.028769e+002
3.916716e+003,1.028761e+002
3.918644e+003,1.028780e+002
3.920573e+003,1.028843e+002
3.922501e+003,1.028945e+002
3.924429e+003,1.029067e+002
3.926358e+003,1.029182e+002
3.928286e+003,1.029261e+002
3.930215e+003,1.029289e+002
3.932143e+003,1.029258e+002
3.934072e+003,1.029174e+002
3.936000e+003,1.029047e+002
3.937929e+003,1.028893e+002
3.939857e+003,1.028726e+002
3.941786e+003,1.028557e+002
3.943714e+003,1.028399e+002
3.945643e+003,1.028260e+002
3.947571e+003,1.028149e+002
3.949500e+003,1.028072e+002
3.951428e+003,1.028038e+002
3.953356e+003,1.028050e+002
3.955285e+003,1.028114e+002
3.957213e+003,1.028230e+002
3.959142e+003,1.028393e+002
3.961070e+003,1.028596e+002
3.962999e+003,1.028824e+002
3.964927e+003,1.029061e+002
3.966856e+003,1.029289e+002
3.968784e+003,1.029491e+002
3.970713e+003,1.029656e+002
3.972641e+003,1.029775e+002
3.974570e+003,1.029837e+002
3.976498e+003,1.029836e+002
3.978427e+003,1.029765e+002
3.980355e+003,1.029622e+002
3.982283e+003,1.029414e+002
3.984212e+003,1.029161e+002
3.986140e+003,1.028893e+002
3.988069e+003,1.028646e+002
3.989997e+003,1.028454e+002
3.991926e+003,1.028338e+002
3.993854e+003,1.028297e+002
3.995783e+003,1.028311e+002
3.997711e+003,1.028343e+002
3.999640e+003,1.028354e+002
4.001568e+003,0.000000e+000
